Label,col-0,col-1,col-2,col-3,col-4,col-5,col-6,col-7,col-8,col-9,col-10,col-11,col-12,col-13,col-14,col-15,col-16,col-17,col-18,col-19,col-20,col-21,col-22,col-23,col-24,col-25,direction,Cluster,cluster0_pred,cluster1_pred,cluster2_pred,selected-cluster,prediction,random-prediction
0.3927518,0.5616762,0.5610393,0.5615087,0.55942315,0.5193707000000001,0.008744574,0.43066975,0.40765664,0.5151447,0.4982271,0.51907295,0.45617559999999996,0.46037865,0.47552446,0.4960898,0.5008279,0.5891103,0.61263317,0.6779151999999999,0.7517174,0.45498356,0.3990532,0.050541922,0.07042514,0.6856555000000001,0.28286317,2.0,1.0,0.45497793,0.4645745,0.4505719,cluster1_pred,2.0,3
0.49075820000000003,0.5404128,0.54201895,0.5300362,0.5345599,0.49381462,0.008786844,0.37000006,0.39718476,0.42502029999999996,0.398629,0.47239053,0.49944845,0.52112705,0.551554,0.5439366999999999,0.54737884,0.57216305,0.5935640999999999,0.60718024,0.6300669,0.56973964,0.34692904,0.13772021,0.32289925,0.6965435000000001,0.33768973,1.0,1.0,0.4500376,0.44518763,0.44085225,cluster0_pred,3.0,3
0.49641716,0.23999006,0.24415715,0.24191332,0.24490303,0.19487822,0.0055849030000000004,0.46618345,0.5132565,0.60764307,0.6149,0.6503575,0.6324991,0.6249145,0.6114940999999999,0.6077494999999999,0.6439383000000001,0.23089547,0.22166893,0.6462071999999999,0.6524581,0.6218078,0.6827308000000001,0.8725831000000001,0.8616014999999999,0.59203684,0.052438408,1.0,0.0,0.4406423,0.467686,0.4080145,cluster1_pred,2.0,2
0.41131252,0.88870925,0.8908503000000001,0.89296865,0.88948286,0.8801771999999999,0.006993017,0.4524174,0.45029256,0.49142677,0.49408466,0.57734996,0.6000821999999999,0.6032884,0.6268885999999999,0.61821675,0.6529385,0.90258545,0.872567,0.80726403,0.8719290000000001,0.5088909,0.6012079,0.24722579,0.47433224,0.7419256999999999,0.29877537,3.0,1.0,0.42333752,0.42640883,0.45631945,cluster2_pred,,1
0.42606673,0.36346677,0.36810046,0.36543027,0.36350074,0.31636956,0.010712763,0.43071806,0.47255477,0.5764556,0.60413706,0.6331789000000001,0.6048718000000001,0.61439914,0.6284479000000001,0.6322734,0.63768715,0.34451804,0.35050344,0.71101606,0.7204845999999999,0.6287068,0.69819844,0.68469375,0.7086204,0.60284996,0.12514035,3.0,0.0,0.44568318,0.47188118,0.42466962,cluster1_pred,2.0,3
0.41689333,0.109052464,0.10827947,0.105532646,0.10691197,0.13167639,0.024368566,0.4232425,0.43356332,0.54192543,0.53958684,0.55762345,0.5084788,0.42994679999999996,0.46670148,0.47405684,0.50366986,0.13402618,0.15972003,0.51882213,0.5384934,0.55731165,0.20739159,0.07853846,0.020684885,0.8033433000000001,0.168688,3.0,2.0,0.43499422,0.50036365,0.44159153,cluster1_pred,2.0,3
0.40372908,0.17246953,0.17913972,0.17472212,0.18088016,0.22456262,0.018218303,0.49951962,0.5139542,0.635825,0.6449635,0.6907449999999999,0.6275354000000001,0.6077456999999999,0.59080034,0.5663552,0.5805901,0.18722358,0.1586965,0.5497668000000001,0.55282545,0.6074242,0.42267767,0.8012372,0.6230140000000001,0.91649646,0.12730673,2.0,0.0,0.45270264,0.4604498,0.4376926,cluster1_pred,2.0,3
0.42025307,0.31086794,0.30768275,0.30760583,0.30681252,0.25829822,0.01298741,0.41676408,0.43185288,0.53944594,0.544341,0.603474,0.60217613,0.60229045,0.60526615,0.6050248,0.625184,0.30075374,0.29314056,0.7092785,0.7383158000000001,0.57781833,0.5973233,0.38833746,0.54612243,0.6075519,0.10769237,3.0,0.0,0.43927288,0.4809771,0.43293056,cluster1_pred,2.0,2
0.44757852,0.29731408,0.29811040000000005,0.29886347,0.3013426,0.2526949,0.01446157,0.46734616,0.48090413,0.5910099,0.57942134,0.60490584,0.58903605,0.5621411000000001,0.54817814,0.5546151999999999,0.5751719,0.28906775,0.30955008,0.7128639,0.7563948,0.5412703000000001,0.64738435,0.5957854,0.39277685,0.61280507,0.121515095,3.0,0.0,0.44656578,0.4821981,0.45034632,cluster1_pred,2.0,2
0.43885818,0.24720219,0.24589756,0.24965656,0.24788661,0.19793458,0.0017541985999999998,0.43478742,0.48142597,0.5831086999999999,0.58978593,0.62959987,0.6254238,0.6233211999999999,0.61633795,0.614221,0.6413059,0.25290406,0.25097805,0.5501578,0.5252526999999999,0.67965347,0.41986567,0.83823544,0.87625784,0.5597734999999999,0.13926923,3.0,0.0,0.45251572,0.4624916,0.3745514,cluster1_pred,2.0,3
0.42955554,0.48159659999999993,0.48023373,0.47308606,0.46966684,0.42512578,0.012612265,0.38304177,0.39793497,0.5061783,0.5056725999999999,0.5526536999999999,0.5539956,0.5656459,0.56409353,0.57879794,0.61465514,0.44591743,0.49808383,0.81333023,0.8483334000000001,0.5868315,0.6568695999999999,0.14606449999999999,0.34057990000000005,0.658591,0.15631008,3.0,2.0,0.4416521,0.46313664,0.435522,cluster1_pred,2.0,1
0.44853416,0.20144242,0.20885132,0.20482078,0.21183491,0.26669532,0.017848441,0.5026096,0.5286876,0.6389097,0.6244894,0.66724616,0.58202815,0.59202516,0.57837176,0.57683444,0.58856905,0.20532623,0.22583002,0.62662965,0.6475254,0.5794369,0.5030501000000001,0.54539555,0.35533357,0.9629293,0.1718843,3.0,0.0,0.44763556,0.46988854,0.44594145,cluster1_pred,2.0,3
0.449323,0.25391692,0.25671309999999997,0.24478583,0.24900547,0.1990808,0.035089254,0.43071806,0.42506966,0.56772304,0.7647887,0.79816544,0.7706384000000001,0.77690893,0.8132067,0.80904716,0.8308260000000001,0.15750034,0.20403819,0.817847,0.73987347,0.8793347,0.8142835999999999,0.8678779000000001,0.92051965,0.57702994,0.29831076,3.0,0.0,0.4498883,0.47865304,0.35057408,cluster1_pred,2.0,1
0.4458672000000001,0.8583685999999999,0.8552959000000001,0.8457600000000001,0.85206366,0.8442122,0.0246169,0.44168317,0.42181313,0.57367283,0.6187951999999999,0.5982236999999999,0.58903605,0.61873335,0.53991485,0.61099136,0.61965054,0.8744094000000001,0.75198156,0.5031553,0.43192634,0.7881307,0.44275612,0.6157028,0.5514229,0.7452481,0.7430299,3.0,1.0,0.37171084,0.45900583,0.37021124,cluster1_pred,2.0,3
0.45058757,0.67644864,0.67715067,0.6801549,0.6798856,0.6545065,0.009851515,0.4529544,0.4482679,0.5842026,0.54212517,0.5994065,0.57292324,0.58437973,0.5635232,0.5545262,0.5648116,0.6859969,0.7047753999999999,0.69488156,0.7323109,0.55279285,0.52486473,0.44954859999999996,0.43330870000000005,0.6957284,0.27041587,3.0,1.0,0.4346566,0.45127547,0.44356856,cluster1_pred,2.0,2
0.41390976,0.66774434,0.67192936,0.6637941999999999,0.6607409000000001,0.634551,0.016490523,0.38137102,0.36968565,0.49196208,0.5117026,0.55097246,0.5410401,0.52828723,0.5350066,0.49526244,0.53467995,0.696407,0.69451416,0.6566139,0.7043308000000001,0.51727915,0.37987503,0.23223232,0.3784298,0.68408215,0.24544106,3.0,1.0,0.43154636,0.44697544,0.44645488,cluster1_pred,2.0,1
0.48931575,0.17595126,0.17528592,0.17297366,0.17143212,0.19799975,0.018294917,0.4335104,0.41464207,0.5742923000000001,0.6164881999999999,0.6368242,0.61490744,0.6514787,0.6230422,0.6187104,0.6227439,0.16513717,0.15097131,0.56954086,0.54378563,0.68639255,0.43689692,0.7170046999999999,0.79448014,0.9554918,0.22950053,1.0,0.0,0.4636754,0.4507591,0.38538072,cluster0_pred,3.0,1
0.47606686,0.42166126,0.42342120000000005,0.42412892,0.427275,0.38169983,0.0071858736,0.47141674,0.49708104,0.6101380999999999,0.63164365,0.6349688,0.6139687,0.61663,0.6142624,0.60979366,0.6172880000000001,0.40486859999999997,0.42936754,0.73271483,0.7579621,0.59309185,0.78015983,0.9669007,0.8271841999999999,0.62929314,0.13276191,3.0,0.0,0.44807026,0.46029437,0.42081636,cluster1_pred,2.0,1
0.467405,0.19833374,0.20636499,0.2004496,0.20997016,0.25606546,0.025969535,0.50908375,0.50893563,0.60419977,0.6016064999999999,0.6583643,0.65271133,0.62564856,0.6126256999999999,0.6127746000000001,0.61471057,0.20462641,0.21125439999999998,0.6124016999999999,0.6227031999999999,0.6034301,0.5287866999999999,0.72877324,0.6939724,0.94484437,0.14182743,3.0,0.0,0.4511084,0.45628887,0.4384577,cluster1_pred,2.0,3
0.44699726,0.3587416,0.35678768,0.35219184,0.35492290000000004,0.30758244,0.005471303,0.42955590000000005,0.42559153,0.52988166,0.55510414,0.5741274000000001,0.54658324,0.5646903,0.55025417,0.5559776999999999,0.5689203,0.36266175,0.3797775,0.6183294,0.6300811,0.60107917,0.38520864,0.13803108,0.16156033,0.5947131,0.15121934,3.0,2.0,0.4501106,0.49954402,0.43414488,cluster1_pred,2.0,2
0.48034045,0.17595126,0.17652910000000002,0.17547145,0.17640476,0.18946122,0.034159318,0.41256952,0.40070134,0.43375990000000003,0.42904136,0.45335913,0.4112723,0.43383409999999994,0.40037036,0.39977404,0.4095785,0.22305652,0.23170973,0.52099085,0.5699632,0.4822327,0.13336046,0.038282994,0.1668704,0.91875577,0.21085519,3.0,2.0,0.43444517,0.47375038,0.46382448,cluster1_pred,2.0,2
1.0,0.02039293,0.02337146,0.02270388,0.025733462000000002,0.04048065,0.03367179,0.485741,0.5071969,0.61175406,0.6351557,0.68729126,0.6692306,0.67390054,0.67324686,0.65479654,0.66855156,0.00048419245000000003,0.004589254,0.6061734000000001,0.5835798000000001,0.6868280999999999,0.5846726,0.9216821,0.9110606,0.7010427,0.06309867,1.0,0.0,0.44315076,0.46884277,0.37951156,cluster1_pred,2.0,1
0.4939281,0.19087291,0.1933118,0.18983388,0.19629537,0.23780715,0.011579296000000001,0.4711941,0.4511249,0.5527104,0.5600398,0.57906526,0.5231650999999999,0.5176661,0.49312258,0.499571,0.54823947,0.20535864,0.21971871,0.6023788,0.63337195,0.54770136,0.3565594,0.21594960000000002,0.15488121,0.9621779,0.14351991,1.0,2.0,0.43210828,0.48700497,0.43874207,cluster1_pred,2.0,2
0.37647086,0.21822929999999996,0.21817504,0.21543649999999998,0.21494281,0.26270479999999996,0.014242295,0.42951566,0.44092363,0.55271065,0.60160637,0.62804407,0.59342754,0.59657645,0.6036066,0.5883581999999999,0.62972015,0.20542889999999997,0.19697319,0.64820147,0.65443665,0.6223158000000001,0.5272828,0.6880801,0.7566334,0.97436464,0.14570762,2.0,0.0,0.44835994,0.45425928,0.42531425,cluster1_pred,2.0,1
0.45222983,0.24857001,0.24701641,0.24466093,0.24888115,0.19895343,0.012770776999999999,0.45862532,0.47307659999999996,0.57936627,0.57463753,0.6066953,0.580613,0.5637343,0.57516545,0.7385418,0.76863974,0.17353597,0.23859562,0.8398103000000001,0.8274264000000001,0.7152854999999999,0.7847917,0.43135145,0.32940042,0.57471293,0.24313824,3.0,0.0,0.4436638,0.48256978,0.45331174,cluster1_pred,2.0,3
0.39737259999999996,0.2549117,0.25298360000000003,0.24853253,0.24975136,0.29051644,0.017394042,0.41192609999999996,0.49085152,0.49090200000000006,0.46846026,0.49507102,0.5089149000000001,0.52047163,0.5137587,0.5112721,0.5562055,0.23995464,0.27918705,0.7282105,0.77798975,0.5287509,0.50267345,0.21723649,0.22240627,0.9784832,0.20217235,2.0,2.0,0.43491644,0.47589397,0.45798406,cluster1_pred,2.0,3
0.44943362,0.105819434,0.10330682,0.09916324,0.09982595,0.121767364,0.020860167,0.41133755,0.38850898,0.5116373,0.5194541,0.5386564,0.5577607,0.5643461,0.54112625,0.553442,0.5730565,0.07838567,0.119050555,0.66436225,0.6635677,0.64424056,0.47413036,0.29668978,0.48363019999999995,0.8011235999999999,0.13193937,3.0,2.0,0.42760468,0.48005387,0.44961134,cluster1_pred,2.0,3
0.48702496,0.26660034,0.27113378,0.26039717,0.26715565,0.2699543,0.02266192,0.42349532,0.37741783,0.39905024,0.38266279999999997,0.39033923,0.44522520000000004,0.46568027,0.44698417,0.47054031,0.5149964,0.27634200000000003,0.34141922,0.71985745,0.7878078000000001,0.47991595,0.42626563,0.06116505,0.12234849,0.78432304,0.4520482,1.0,2.0,0.4446455,0.46186894,0.47396046,cluster2_pred,,1
0.45537215,0.24496393,0.25298360000000003,0.24728362,0.25037295,0.282434,0.037881706,0.49817517,0.5703714,0.6480560000000001,0.63202953,0.6334009,0.6179745,0.6058642,0.6211248,0.6484361999999999,0.69015956,0.21391848,0.22685128,0.703443,0.70725155,0.6415316,0.68351185,0.56336796,0.3739426,0.9329400999999999,0.16984954,3.0,0.0,0.4532601,0.47309306,0.44753572,cluster1_pred,2.0,2
0.44764963,0.8719224,0.87319744,0.85650057,0.85616606,0.8452078000000002,0.0127549255,0.3183805,0.32144007,0.46032408,0.45773357,0.44204175,0.42540416,0.47432520000000006,0.49288577,0.50200474,0.5507907,0.9054263000000001,0.9163135,0.7545234000000001,0.8441187,0.43220929999999996,0.42103946,0.11905523400000001,0.14915274,0.7361757,0.3291715,3.0,1.0,0.4332826,0.4219353,0.4764902,cluster2_pred,,3
0.42330408,0.70368063,0.70450026,0.7018859000000001,0.70350575,0.68187493,0.00972999,0.42686716,0.39015126,0.5375572,0.5513675,0.5946315999999999,0.5436347,0.54890984,0.5087341,0.49324873,0.5109762999999999,0.72014594,0.72722435,0.7027866,0.7553562,0.51559,0.47637892,0.4218622,0.44960788,0.68824923,0.2681666,3.0,1.0,0.4318897,0.4472789,0.44261727,cluster1_pred,2.0,3
0.49560884,0.25802037,0.25795624,0.25665042,0.26093984,0.30486152,0.022807222000000002,0.46286377,0.49411750000000004,0.6080047,0.6156454,0.6697633000000001,0.6417476,0.6620509,0.6653219,0.69884264,0.73534137,0.2008896,0.2413357,0.7577436,0.7320896,0.73027104,0.7984666,0.7863599,0.77647126,0.9756674999999999,0.18921235,1.0,0.0,0.45227414,0.4575985,0.4259769,cluster1_pred,2.0,3
0.45455524,0.35799549999999997,0.35753359999999995,0.35781193,0.35914966,0.31191236,0.011093192,0.46095157,0.47777322,0.58186126,0.5889886999999999,0.6059796,0.57724375,0.56947005,0.5696294,0.5736894,0.6031392,0.35034996,0.36915582,0.6841706,0.7119583,0.5751533000000001,0.61870116,0.3974222,0.26160923,0.5980196999999999,0.11552319999999999,3.0,2.0,0.45091063,0.48910755,0.44250914,cluster1_pred,2.0,1
0.46963978,0.24682914,0.24987568,0.24853253,0.25223768,0.28477779999999997,0.012844748999999999,0.45537215,0.5223514,0.66081136,0.66137713,0.6619439,0.6200414000000001,0.62150323,0.6020209,0.62962985,0.66593665,0.21627189,0.22685128,0.7102823,0.7117054,0.6492895000000001,0.69412035,0.8007883000000001,0.57110935,0.93615925,0.16560005,3.0,0.0,0.44852495,0.4648719,0.4390395,cluster1_pred,2.0,2
0.47107187,0.82392436,0.86673295,0.81603605,0.8590253000000001,0.8554662000000001,0.038526323,0.81846875,0.72213227,0.8285955,0.78062695,0.8109239,0.8039135000000001,0.75137305,0.7325813,0.7496041,0.8095601,0.7810196,0.7648535,0.82711005,0.8227929,0.69149715,0.71169835,0.6678898,0.60812426,0.7343206,0.72827023,3.0,1.0,0.41927573,0.47082707,0.41418803,cluster1_pred,2.0,2
0.43777309999999997,0.34071127,0.33814025,0.33807915,0.33988065,0.3766237,0.013130071,0.44467170000000006,0.50187695,0.56156915,0.5711301999999999,0.5879441,0.5930338,0.59205097,0.6586552,0.6744525,0.6889171,0.3256583,0.31648713,0.605105,0.572287,0.712953,0.49901617,0.23964319,0.38252416,0.96129966,0.2391094,3.0,2.0,0.45420334,0.46710855,0.4285938,cluster1_pred,2.0,2
0.51962423,0.39480227,0.39656890000000006,0.39090797,0.39209348,0.43271285,0.013132712,0.39356735,0.41886112,0.53729266,0.51281816,0.59237325,0.58903605,0.5658634,0.58060396,0.55353284,0.5277147,0.4161795999999999,0.38554829999999995,0.66375357,0.72016424,0.49652654,0.44439906,0.42897052,0.54549664,0.93048805,0.26036736,1.0,0.0,0.44975215,0.44952005,0.4323283,cluster0_pred,3.0,2
0.44139870000000003,0.08070131400000001,0.08192442,0.08130385,0.08117851599999999,0.103621185,0.011801212,0.4536723,0.48308703,0.5549251000000001,0.5703710999999999,0.6095715,0.5871394,0.5994811999999999,0.5819054,0.5919424,0.59650964,0.079352975,0.07299795,0.5908667,0.5941063,0.6165967,0.39727199999999996,0.32411838,0.37701344,0.776238,0.07008177,3.0,2.0,0.4282463,0.4952003,0.44332433,cluster1_pred,2.0,2
0.41560137,0.23427007,0.24030332,0.23779193,0.24092491,0.1908031,0.0050882325,0.46967208,0.5064728000000001,0.6072273,0.60174507,0.63138956,0.61666375,0.62268406,0.6156461,0.62443924,0.62617093,0.22052965,0.22498392,0.6493955,0.64644504,0.64629203,0.6307998,0.6300259,0.5462433000000001,0.558467,0.13760994,3.0,0.0,0.4476149,0.47928232,0.43885067,cluster1_pred,2.0,3
0.43304363,0.34705296,0.34671804,0.34832025,0.34671799999999997,0.29917732,0.00356916,0.4417652,0.48716533,0.62968224,0.60612965,0.62709486,0.61969596,0.6067514,0.5980006,0.60570586,0.62288046,0.3374313,0.32825813,0.6861703,0.7108711999999999,0.5835851,0.6275189999999999,0.81774104,0.5808778,0.6099339,0.11604149999999999,3.0,0.0,0.44804898,0.47179735,0.4335645,cluster1_pred,2.0,2
0.36927298,0.079830885,0.07918946,0.07493444,0.07434112,0.086129546,0.03875352,0.39943248,0.37141314,0.5019872999999999,0.49659866,0.5103206,0.49658987,0.52563286,0.5151492999999999,0.52321994,0.5038872,0.09092334,0.105159454,0.5389911000000001,0.5443279999999999,0.59902006,0.23058560000000003,0.1059442,0.102801405,0.7326228,0.14618987,2.0,2.0,0.43593508,0.49867907,0.4423466,cluster1_pred,2.0,3
0.42257935,0.07212137,0.073595226,0.07331085,0.07409249,0.09340548,0.030812075,0.45449045,0.39349383,0.48645422,0.49968266,0.54208004,0.5288170999999999,0.52907574,0.5093537,0.5377765,0.5682636,0.07285637,0.09594758,0.61727417,0.6347246999999999,0.5861305,0.3010609,0.057978325,0.21404624,0.73576003,0.060763318,3.0,2.0,0.4169658,0.51070905,0.4398356,cluster1_pred,2.0,2
0.49197114,0.18279034,0.19206862,0.18171600000000002,0.19629537,0.22197926,0.03573387,0.5392697,0.55942696,0.6496409000000001,0.62562376,0.6428871,0.64385563,0.6341336,0.6415046999999999,0.64555544,0.67728376,0.2024,0.1638027,0.5261123000000001,0.51757544,0.63178945,0.4478124,0.5096698000000001,0.3599693,0.9483504999999999,0.21503350000000002,1.0,0.0,0.46237546,0.4733395,0.446389,cluster1_pred,2.0,2
0.4761617,0.21760754,0.21817504,0.20919196,0.20748383,0.22110645,0.035572715,0.36769609999999997,0.21978566,0.40630788,0.47506785,0.5424403,0.5302355,0.43677872,0.31003216,0.31506142,0.33585802,0.29042736,0.27682385,0.42968214,0.48010507,0.45707607,0.18232182,0.33040872,0.42319834,0.89218307,0.30224544,3.0,2.0,0.45950735,0.44569522,0.43508744,cluster0_pred,3.0,1
0.4499039000000001,0.30825666,0.3100448,0.31172726,0.3104177,0.26199144,0.005569052,0.45513737,0.5179536,0.6159599,0.6212788,0.6453473000000001,0.6126212,0.6580541999999999,0.64678574,0.66292775,0.6719059000000001,0.26650685,0.29457890000000003,0.7669831,0.77264047,0.6516644,0.87555015,0.8038363000000001,0.6921194,0.6118774,0.13397166,3.0,0.0,0.44190586,0.47193858,0.43620738,cluster1_pred,2.0,1
0.42316025,0.28425765,0.3043262,0.28462595,0.30171555,0.25307685,0.029607384,0.53130114,0.5341294,0.64174145,0.64559513,0.68686205,0.6523777,0.6634708,0.6934937,0.700394,0.70875657,0.25245717,0.26943323,0.7459895000000001,0.74181783,0.6720965999999999,0.89331234,0.65175813,0.6396046999999999,0.6177756,0.14952187,3.0,0.0,0.44493684,0.47829166,0.44295475,cluster1_pred,2.0,1
0.4155647,0.23377270000000003,0.23620088,0.23417011,0.23421182,0.27059287,0.019430918999999998,0.4410331,0.43533856,0.5689704000000001,0.6006773,0.6428875,0.658615,0.62416345,0.55489725,0.56029636,0.62003565,0.2503248,0.20603289999999996,0.5764234,0.5918401,0.58179635,0.42152223,0.7056135,0.7435797,0.9871281999999999,0.24143244,3.0,0.0,0.45560735,0.45307484,0.4052651,cluster0_pred,3.0,1
0.45455578,0.21810494,0.22973646,0.22155614,0.22899054,0.17857748,0.011235853,0.48246267,0.5075164000000001,0.5872669,0.51763207,0.5544434,0.5368126,0.55035096,0.5353762,0.5437159,0.55773336,0.24697326,0.25150463,0.6370522,0.70098585,0.47085744,0.43245646,0.11196405,0.101138055,0.5712623,0.17751732,3.0,2.0,0.4353307,0.5058178,0.4366594,cluster1_pred,2.0,1
0.59621686,0.281522,0.27884138,0.25814912,0.26255593,0.26459099999999997,0.03043693,0.31562644,0.2491261,0.49229315,0.50925636,0.56509537,0.5683271,0.59878796,0.5367738000000001,0.56513506,0.56742734,0.28960490000000005,0.30794904,0.6498146,0.69153476,0.5311543000000001,0.41526696,0.55949414,0.7491125,0.8261118000000001,0.48341408,1.0,0.0,0.47791818,0.42962444,0.36433822,cluster0_pred,3.0,3
0.5041973,0.19087291,0.19766286,0.19358063,0.19380903,0.22733596,0.023103112000000002,0.43351075,0.5315088000000001,0.6275098000000001,0.62924254,0.6620154,0.66665006,0.65555656,0.62304235,0.66230035,0.7006441999999999,0.16358083,0.15933841,0.63575643,0.6029849,0.7200219,0.5954854,0.7580654,0.7279181,0.94820124,0.21012296,1.0,0.0,0.46212333,0.46126208,0.40874413,cluster0_pred,3.0,3
0.44168317,0.8527729,0.86337644,0.8542526,0.8526853000000001,0.8448667999999999,0.016168216000000003,0.39984497,0.47331083,0.6134278000000001,0.57043946,0.6088928000000001,0.6229785,0.5561688,0.6103378,0.60854083,0.6514454000000001,0.8807156999999999,0.7467933000000001,0.48983938,0.41401723,0.79685676,0.44447029999999993,0.5873244000000001,0.48334754,0.74278045,0.7710378000000001,3.0,1.0,0.3624686,0.4690507,0.36493403,cluster1_pred,2.0,3
0.34080422,0.74446654,0.7417951999999999,0.7283626999999999,0.72749877,0.7069658000000001,0.00834301,0.39006785,0.42743948,0.57236606,0.6209555,0.68304664,0.6746797,0.6861826,0.6705019,0.6744036999999999,0.67018676,0.73183525,0.6924161999999999,0.69771165,0.6944609,0.65839803,0.5999471,0.81285876,0.9049333,0.68681407,0.28041852,2.0,1.0,0.40966484,0.43983755,0.3802043,cluster1_pred,2.0,1
0.5905716,0.8301417,0.8367728000000001,0.83289623,0.8311784999999999,0.83490103,0.007925596,0.49734172,0.43484432,0.56810474,0.4773594,0.51016337,0.43432139999999997,0.4479212,0.34093517,0.3911565,0.37091967,0.8985082,0.8922384,0.50373936,0.56344336,0.45050272,0.31707808,0.21897958,0.14638549,0.76887304,0.464883,1.0,1.0,0.4025474,0.44062436,0.505356,cluster2_pred,,3
0.46610084,0.098856,0.09709100400000001,0.09716498,0.10057184,0.12281041,0.023348805,0.44943362,0.43908393,0.51163733,0.5265283000000001,0.55722123,0.5274052,0.56130123,0.55340606,0.5473975999999999,0.57081074,0.079806365,0.118632704,0.65913165,0.66559815,0.62428266,0.48154506,0.14541537,0.2928422,0.80926275,0.12669182,3.0,2.0,0.42146632,0.49346256,0.45001587,cluster1_pred,2.0,3
0.45866709999999994,0.23066401,0.23620088,0.23204696,0.23359025,0.25329474,0.034888472000000004,0.46566525,0.4804291,0.60400546,0.6693876999999999,0.71474165,0.7269131999999999,0.7531848000000001,0.69731486,0.66761893,0.65861106,0.24037884,0.18406448,0.48757120000000004,0.43354586,0.74009603,0.44843322,0.8717606,0.8981712,0.9355084000000001,0.26951364,3.0,0.0,0.45033786,0.45420703,0.35500363,cluster1_pred,2.0,3
0.46042264,0.5373041000000001,0.5405270999999999,0.54077685,0.5443809000000001,0.5039093,0.006668068,0.49075820000000003,0.43907234,0.54810756,0.47182749999999996,0.47418535,0.48896850000000003,0.5288008000000001,0.53107035,0.5818722,0.5850148000000001,0.5705489,0.5908081000000001,0.5993522,0.6257545999999999,0.55883425,0.40412259999999994,0.20204885,0.20337403,0.6993595,0.32515755,3.0,1.0,0.4503085,0.4562034,0.44898218,cluster1_pred,2.0,1
0.42501378,0.8637155000000001,0.87232727,0.86649185,0.87282443,0.86269224,0.008276964,0.4464583,0.527816,0.6324541,0.75059015,0.8296360999999999,0.7947831,0.84097105,0.9353062,0.94626194,0.94151616,0.772175,0.77743936,0.9522757,0.8804876,0.89490587,0.9309798,0.85871106,0.90484285,0.7278064999999999,0.37829316,3.0,1.0,0.41899106,0.44032884,0.37653804,cluster1_pred,2.0,2
0.44467170000000006,0.21325542,0.21544008,0.21543649999999998,0.21742915,0.27430972,0.015219786,0.45239684,0.49246117,0.5938338000000001,0.6417856,0.6723186999999999,0.6658483000000001,0.6443029,0.65542835,0.5927602,0.6168186,0.20707710000000001,0.22224286,0.63832796,0.64716727,0.61328244,0.55686533,0.8497856,0.7927668999999999,0.95953786,0.15208712,3.0,0.0,0.45006135,0.4571457,0.41696277,cluster1_pred,2.0,3
0.42613164,0.12521762,0.12369468,0.12351692,0.121705614,0.14401983,0.0348145,0.42072394,0.3905411,0.40266255,0.49030050000000003,0.5309696999999999,0.5299437,0.52476263,0.55402327,0.5568516,0.5714096,0.141482,0.17011498,0.5469921,0.54951495,0.6081558000000001,0.28366646,0.031728465,0.27318309999999996,0.826501,0.18375671,3.0,2.0,0.43612227,0.4893408,0.44739854,cluster1_pred,2.0,1
0.4257682,0.5324545999999999,0.53244656,0.51617336,0.53257084,0.5212886999999999,0.0064778537,0.39284173,0.41492623,0.5728960999999999,0.5615023,0.5781514,0.5063489000000001,0.48533767,0.48982298,0.54983014,0.6081072,0.51440525,0.485137,0.63004535,0.58034396,0.76235634,0.47371423,0.5164382000000001,0.40951172,0.74298555,0.6824128,3.0,1.0,0.44684026,0.44957012,0.35318592,cluster1_pred,2.0,1
0.47209072,0.5465058,0.5453754,0.5446484,0.5459970000000001,0.50557023,0.005233535,0.4604223,0.5108024,0.61278075,0.5990244,0.60022974,0.5525247,0.54606545,0.50121444,0.49848166,0.4915842000000001,0.5930633000000001,0.5724825,0.57238823,0.6403984,0.44517570000000006,0.37809768,0.5309479,0.34925026,0.68838966,0.2925807,3.0,1.0,0.4348025,0.45938087,0.4522245,cluster1_pred,2.0,2
0.44822142,0.6616513,0.65987074,0.658299,0.66111386,0.6349398,0.009959832,0.42337433,0.47322255,0.61339843,0.6094579999999999,0.6445609999999999,0.5763513000000001,0.56654704,0.57443684,0.56249726,0.6116815,0.6914710999999999,0.6408481,0.5954861,0.61689895,0.57079905,0.44663432,0.6994458,0.49481022,0.6856786,0.26377404,3.0,1.0,0.41786882,0.45899892,0.42394954,cluster1_pred,2.0,3
0.45578320000000005,0.10009948,0.099701636,0.09991258,0.10181501,0.12454884,0.019951366,0.43117920000000004,0.47185096,0.57805276,0.56407666,0.56259525,0.5499418,0.54825187,0.51798314,0.5553017,0.57575125,0.08309574,0.116872415,0.6536846,0.6669807,0.60538703,0.49182615,0.3508122,0.23688374,0.8131489000000001,0.116266735,3.0,2.0,0.4289686,0.48823035,0.452749,cluster1_pred,2.0,2
0.46153249999999996,0.22892314,0.22575833,0.22929935,0.22986077,0.17946902,0.00916463,0.44932282,0.4615971,0.5606536999999999,0.56307703,0.6188635,0.58667755,0.575843,0.5668616,0.5644929,0.57681704,0.2318001,0.24257503,0.63130087,0.65542233,0.57221127,0.44452897,0.6102049,0.69021523,0.5873321,0.051208607999999996,3.0,0.0,0.43988284,0.47797698,0.4338589,cluster1_pred,2.0,2
0.44126436,0.41594129999999996,0.41645947,0.41651058,0.41757829999999996,0.463309,0.011748373999999999,0.44126472,0.41886175,0.5421665,0.5782254,0.61334455,0.62457395,0.59760624,0.60290605,0.6613111,0.69352686,0.37767386,0.43392262,0.8322847,0.8606456,0.60841197,0.6886364,0.5264616,0.68775725,0.93588954,0.32470453,3.0,0.0,0.44770265,0.44549477,0.43023401,cluster0_pred,3.0,2
0.42397612,0.33698085,0.3424913,0.3365805,0.34547487,0.3834234,0.016736217,0.48261386,0.49878117,0.68985456,0.71066564,0.7302010999999999,0.68498176,0.69035345,0.6689185000000001,0.6502039000000001,0.6479248000000001,0.33049214,0.30321079999999995,0.5580939,0.51088023,0.73906374,0.54032356,0.9393869,0.8292313,0.9630234000000001,0.25231332,3.0,0.0,0.43767515,0.44971532,0.38349733,cluster1_pred,2.0,2
0.49099544,0.29980102,0.30009943,0.29374298,0.30271012,0.31141058,0.022894405,0.43342155,0.5205587,0.7218514,0.6363043,0.59075916,0.6507789,0.65029025,0.6631885999999999,0.6837666,0.72509456,0.28881752,0.24673507,0.6772841,0.6878593000000001,0.6179409,0.5528215999999999,0.8422794,0.6190694999999999,0.8466283000000001,0.48126286,1.0,0.0,0.46043494,0.45543975,0.38723928,cluster0_pred,3.0,3
0.40590695,0.58741605,0.5969667,0.5862371,0.59634507,0.5622264,0.029440947000000002,0.45759255,0.44363955,0.56098825,0.5403685,0.5694516,0.54853064,0.5922291999999999,0.57564026,0.59806556,0.6072607,0.61174417,0.617258,0.66483384,0.69555366,0.56305414,0.49036965,0.30350468,0.28013602,0.7136267,0.28426576,2.0,1.0,0.45043734,0.45751265,0.45017704,cluster1_pred,2.0,1
0.49924759999999996,0.20579457,0.20325708,0.2004496,0.20188962,0.22915180000000002,0.021972394,0.40464926,0.41247997,0.5585611999999999,0.60067743,0.68544054,0.6691573000000001,0.668033,0.6371744,0.63276637,0.6653343,0.19349702,0.17218234,0.59037304,0.55591685,0.7137241,0.48101629999999995,0.7481745,0.84482545,0.9493957000000001,0.20899451,1.0,0.0,0.4635201,0.4563126,0.37421045,cluster0_pred,3.0,3
0.45750546,0.593136,0.5980854999999999,0.59822655,0.59758824,0.5585996999999999,0.0105384,0.45925555,0.42807654,0.4725856,0.4850278,0.5628835999999999,0.57585144,0.59338605,0.6206395,0.6621855,0.69231164,0.5767899000000001,0.57561934,0.7427847,0.73593915,0.6782425999999999,0.56108123,0.15831913,0.40468812,0.70469934,0.3024445,3.0,1.0,0.45319977,0.43843827,0.42954916,cluster0_pred,3.0,3
0.46444002,0.23091272,0.22998507,0.23392032,0.23147687,0.18112446,0.0007714247,0.44409007,0.45585649999999994,0.56190085,0.5718468000000001,0.5934531999999999,0.5782543000000001,0.5780732,0.5637474,0.5702829,0.5731975,0.23197572,0.2586426,0.6679821,0.7068291999999999,0.5428268,0.51139337,0.08072892599999999,0.07230163,0.58561975,0.07640118,3.0,2.0,0.42647278,0.5158334,0.42887342,cluster1_pred,2.0,1
0.47895736,0.28040287,0.27921432,0.27600852,0.27884135,0.29062203,0.014186816000000001,0.41374750000000005,0.43093953,0.5112717000000001,0.5293661,0.58222425,0.58825684,0.56026834,0.55574614,0.5192233,0.5156574,0.27290404,0.30429720000000005,0.64577013,0.65612334,0.61112237,0.45352465,0.39575237,0.583922,0.85562104,0.27874479999999996,3.0,2.0,0.45119095,0.45993364,0.43391576,cluster1_pred,2.0,3
0.43300325,0.5804526,0.5799354,0.57687026,0.57545996,0.5358546999999999,0.006409165,0.40325317,0.4039922,0.45881787,0.4698278,0.54887927,0.5501587,0.5399915,0.5601109000000001,0.574196,0.56282973,0.58182687,0.6168649,0.7399374,0.7874471,0.5373558,0.4902044,0.16779564,0.36586675,0.6940166999999999,0.30970892,3.0,1.0,0.45545447,0.44471735,0.44424796,cluster0_pred,3.0,2
0.45223019999999997,0.26212382,0.26628542,0.26426876,0.26790154,0.2184379,0.010039088,0.47141640000000007,0.46681508,0.56190103,0.54673284,0.55838054,0.5169343,0.5226287000000001,0.52153677,0.57300806,0.5909653,0.27789187,0.29467425,0.629466,0.66797906,0.5346553,0.42639217,0.080216475,0.055644695,0.55924195,0.16536458,3.0,2.0,0.44003066,0.5038461,0.4337506,cluster1_pred,2.0,2
0.40769744,0.31024619999999997,0.31389856,0.30848008,0.30569366,0.32242814,0.010451219,0.40433562,0.37723988,0.5112717000000001,0.48142862,0.5242898,0.51112056,0.52010804,0.5265417,0.55584943,0.56473464,0.32049376,0.33601928,0.64521086,0.6791216,0.5502203,0.39242953,0.23867948,0.32916209999999996,0.8587323,0.30132776,2.0,2.0,0.4504062,0.46227548,0.4449157,cluster1_pred,2.0,1
0.45295474,0.66637653,0.6694431,0.66454357,0.6608651999999999,0.6346807,0.025538912,0.4050356,0.44189700000000004,0.5478139,0.5766025,0.60414,0.5883506,0.5759495,0.5814778,0.6151768,0.6183774999999999,0.68269724,0.647153,0.6143925,0.6189897,0.61861223,0.44100112,0.5142587000000001,0.6592909,0.6743934,0.22561927,3.0,1.0,0.41862297,0.44153407,0.41384053,cluster1_pred,2.0,3
0.44757834,0.24794826,0.24477872,0.24790809,0.24726504,0.19729792,0.0049746320000000005,0.44002053,0.47933859999999995,0.58061385,0.5949683000000001,0.6210111,0.59914386,0.5965549,0.578625,0.55836207,0.5629979,0.24633938,0.2393893,0.7066095,0.7612211999999999,0.5112184000000001,0.605803,0.5417960999999999,0.41571513,0.5897043000000001,0.14430314,3.0,0.0,0.43770292,0.4881982,0.44914335,cluster1_pred,2.0,1
0.30487240000000004,0.7547873,0.76330185,0.7473460999999999,0.754351,0.74480927,0.014559319,0.41227168,0.72482455,0.77838737,0.8439810999999999,0.87297225,0.83485854,0.90263724,0.9475283999999999,0.9460896999999999,0.8683021000000001,0.7188458000000001,0.61302686,0.56202084,0.433058,0.95087165,0.6022184,0.85838926,0.83847797,0.7055011999999999,0.7170810000000001,2.0,1.0,0.34269816,0.4679223,0.32127565,cluster1_pred,2.0,1
0.33429408,0.34444168,0.34124815,0.33283377,0.33615115,0.37209064,0.023377866,0.39293268,0.3904293,0.52209693,0.55898625,0.6296269,0.58856976,0.5672898000000001,0.43009448,0.46125070000000007,0.43856937,0.3928616,0.365753,0.49165690000000006,0.52940375,0.50431144,0.26528758,0.42968714,0.45041817,0.918042,0.30156344,2.0,2.0,0.45040056,0.45374075,0.4269302,cluster1_pred,2.0,2
0.45513704,0.18751553,0.18436101,0.18533784,0.18597712,0.13451467,0.006213666999999999,0.42606717,0.44385484,0.54651535,0.55709714,0.5880849,0.56882054,0.5774359,0.5523302,0.563471,0.5620106,0.2036564,0.1949535,0.5601345,0.5706384,0.59064937,0.18979762,0.31833515,0.41211724,0.5177784000000001,0.07919995,3.0,2.0,0.43986002,0.501938,0.43241397,cluster1_pred,2.0,1
0.4157849,0.66500866,0.6617354999999999,0.65617585,0.66322726,0.63436466,0.005857015500000001,0.45233485,0.4943577,0.56517553,0.627135,0.6890656999999999,0.66556156,0.6900466,0.7168791,0.7072645000000001,0.71570855,0.6249557,0.6223626999999999,0.7920676,0.7771451,0.7106369,0.74993014,0.66689515,0.7194451,0.7011651,0.31019256,3.0,1.0,0.44284448,0.44832355,0.40433142,cluster1_pred,2.0,2
0.45062759999999996,0.8724198000000001,0.87717557,0.8784814000000001,0.8756837,0.8656936,0.0050274696999999995,0.45062864,0.43425328,0.5902746,0.5847607,0.5641501,0.5603838000000001,0.5121987,0.56945914,0.60181457,0.61214757,0.8440986999999999,0.9011664,0.9138275,0.9840542,0.5195357,0.6810608,0.42554924,0.3149447,0.73768646,0.3376105,3.0,1.0,0.44070667,0.44820973,0.46080843,cluster2_pred,,2
0.46881706,0.30527228,0.3083043,0.30473337,0.31066635,0.34111407,0.015428493,0.45157042,0.43996158,0.5640363,0.5522100999999999,0.5624650999999999,0.5330679,0.53722835,0.5252326,0.583521,0.5600839,0.34192955,0.3304419,0.48520812,0.47656223,0.62247735,0.28260782,0.25234485,0.21887037,0.93581265,0.24930957,3.0,2.0,0.4508281,0.46273223,0.4422719,cluster1_pred,2.0,2
0.2518364,0.23377270000000003,0.23184983,0.22892469,0.22923918,0.26421735,0.023470331,0.4155647,0.43533826,0.524732,0.5582682,0.6092930000000001,0.6059038,0.6381220000000001,0.5982012,0.5411128000000001,0.55826503,0.24865496,0.20683249999999997,0.5752944999999999,0.58992416,0.58356184,0.39076394,0.5193134,0.6643869000000001,0.9824530999999999,0.23468584,2.0,0.0,0.452993,0.45368454,0.4233308,cluster1_pred,2.0,3
0.39984497,0.8546381,0.86648434,0.8566254999999999,0.862009,0.8546855,0.012255613,0.49906164,0.5607479000000001,0.5929099,0.6110098,0.67070097,0.58107054,0.64395624,0.6327461999999999,0.66596454,0.8449173000000001,0.8880948000000001,0.7413889,0.47429717,0.39526245,0.801499,0.46940205,0.47098076,0.4302036,0.7472926999999999,0.80190444,2.0,1.0,0.36053437,0.46062624,0.39165667,cluster1_pred,2.0,1
0.38246128,0.16115394,0.16260566,0.15324092,0.15937345,0.10726196,0.005196549,0.45164874,0.41359009999999996,0.54651546,0.55948955,0.5709065,0.5307481,0.5334629,0.5028534,0.4953501,0.5143019,0.16761379,0.19035837,0.6236646,0.6630113000000001,0.53114414,0.38319984,0.28095722,0.28686783,0.54308885,0.24375692,2.0,2.0,0.43647075,0.49360484,0.44632068,cluster1_pred,2.0,2
0.43304417,0.23116139,0.22998507,0.23354565,0.23296867,0.18265274,0.0029668146999999997,0.44350898,0.47412029999999994,0.5752079999999999,0.5726444,0.5841484,0.5819607,0.59336835,0.586237,0.5777765,0.59458435,0.22334401,0.2521657,0.64544755,0.65563333,0.6114788000000001,0.5201784,0.41323772,0.36981267,0.5548533,0.122025765,3.0,2.0,0.4439766,0.4906428,0.44293365,cluster1_pred,2.0,2
0.341546,0.24272569,0.23955743,0.20881729,0.2225261,0.19260892,0.018802155,0.28720397,0.32118255,0.44751203,0.51386833,0.52494764,0.48060668,0.47252363,0.44094858,0.5574121,0.6635104000000001,0.24506243,0.20594117,0.46103206,0.39237615,0.77161396,0.3268457,0.43741667,0.42550984,0.7342265,0.5407687,2.0,2.0,0.46904692,0.44421545,0.34371817,cluster0_pred,3.0,3
0.41133755,0.11104202,0.10840379,0.10578243400000001,0.10504723,0.12906878,0.025071299999999998,0.39308327,0.42270050000000003,0.5315053000000001,0.5248959,0.59435093,0.58305687,0.5739158000000001,0.569937,0.57808465,0.6152767,0.07720491,0.09667092599999999,0.67121166,0.6596032,0.6737434,0.52608323,0.48209018,0.6485595999999999,0.80609065,0.12960857,3.0,0.0,0.43689114,0.47481188,0.42946547,cluster1_pred,2.0,1
0.4914062,0.6473514,0.6460716,0.6456850000000001,0.64333665,0.61640996,0.007354953000000001,0.44112265,0.457826,0.5407006999999999,0.53899896,0.56385326,0.5685225,0.5685464,0.6316134,0.630578,0.6316206,0.66324145,0.62572896,0.67822754,0.71413547,0.5528118000000001,0.49452838,0.098526485,0.27342045,0.68426114,0.27007735,1.0,1.0,0.4396173,0.45480287,0.44192532,cluster1_pred,2.0,1
0.410386,0.28624720000000003,0.30034807,0.28612465,0.3042019,0.32066120000000004,0.02399342,0.5562673,0.5534222,0.66369224,0.72480315,0.75602704,0.75655425,0.7387214,0.71549433,0.7286676,0.6931936,0.2740237,0.24998929,0.6266275,0.59442574,0.71641123,0.62989134,0.9304972,0.87395906,0.8464972,0.34394664,3.0,0.0,0.45272213,0.459761,0.37540352,cluster1_pred,2.0,3
0.42025253,0.30378014,0.30382895,0.3003622,0.30469915,0.25613332,0.0059891087,0.45223,0.46733662,0.58685124,0.5969614000000001,0.6238739000000001,0.6207071,0.6175857,0.6024986,0.6040031,0.61695826,0.28585565,0.29123294,0.68965477,0.6987919,0.6245519,0.7091086,0.8386759,0.862188,0.5950368,0.097329944,3.0,0.0,0.44106138,0.46722573,0.4072306,cluster1_pred,2.0,2
0.48606315,0.34755036,0.34932873,0.3353316,0.3324217,0.36755744,0.015914597,0.39293218,0.41829103,0.51716286,0.5545753000000001,0.58582085,0.6450043000000001,0.65443534,0.6524976,0.6340385000000001,0.65768486,0.32657698,0.3098703,0.5893526,0.5503255,0.7252761999999999,0.44510900000000003,0.5520145000000001,0.78289133,0.9569614,0.25558000000000003,1.0,0.0,0.44728422,0.4417859,0.39155665,cluster0_pred,3.0,3
0.44583422,0.23924397,0.2360766,0.23854129,0.23694679,0.18672799,0.0029324704999999997,0.43711388,0.46994603,0.5872677,0.5953672,0.6167164,0.5981331999999999,0.59719235,0.57862544,0.58356696,0.59721684,0.23274740000000002,0.25691843,0.66551906,0.6944195,0.5679083,0.5893406,0.62886727,0.46588185,0.5850805,0.075559065,3.0,0.0,0.4407373,0.48276764,0.44689742,cluster1_pred,2.0,2
0.44874156,0.17035563,0.17068623,0.15736231,0.16521631,0.11324729,0.008744574,0.41327536,0.39897849999999996,0.51699054,0.5120509,0.5354753000000001,0.5240095,0.5356933,0.53606844,0.538607,0.56859106,0.16152679999999997,0.19649401,0.6600095,0.6844846,0.57803214,0.413105,0.17118186,0.16312112,0.54611015,0.22734958,3.0,2.0,0.43530214,0.5007685,0.44370684,cluster1_pred,2.0,3
0.41269409999999995,0.15854263,0.18311787,0.15986012,0.18299353,0.13145837,0.026265424,0.5743254,0.5790058000000001,0.6837416999999999,0.70299965,0.69330436,0.7136983,0.72560704,0.69107217,0.68949485,0.6728928000000001,0.14471193,0.11949994,0.58792543,0.54228836,0.74199307,0.6122018,0.94065654,0.86756855,0.5460193,0.28380215,3.0,0.0,0.45856228,0.4627393,0.35600188,cluster1_pred,2.0,1
0.448079,0.40039790000000003,0.40029836,0.38841015,0.38649923,0.42599654,0.016744142,0.33224192,0.2934921,0.49343133,0.53617764,0.59027565,0.57324123,0.5322531,0.47517648,0.49764803,0.5334986999999999,0.40893559999999995,0.42403266,0.64207774,0.67128456,0.5616201,0.40604648,0.5055004,0.6311159000000001,0.9442259,0.3017322,3.0,0.0,0.4561133,0.4332131,0.4019413,cluster0_pred,3.0,2
0.48827650000000006,0.26137775,0.26243162,0.25877357,0.25944802,0.20977819,0.007423641,0.43013716,0.45168284,0.5743765000000001,0.57144845,0.60275865,0.58701473,0.5701076,0.55578995,0.56551486,0.56563026,0.25657335,0.26964498,0.66050166,0.6862653000000001,0.5748234999999999,0.51378,0.47428640000000005,0.3912058,0.5355047,0.1255361,1.0,2.0,0.44459632,0.48910245,0.44200864,cluster1_pred,2.0,3
0.37000006,0.5521015,0.5488563,0.54052705,0.55047244,0.51017046,0.015188083,0.44408727,0.35110915,0.43503362,0.47942749999999995,0.557856,0.5613139,0.606175,0.58488107,0.5757201999999999,0.6051536999999999,0.5740430999999999,0.59475833,0.6265253000000001,0.6333223000000001,0.6157828000000001,0.41637024,0.32499320000000004,0.56539863,0.69723034,0.32465747,2.0,1.0,0.4432822,0.43019584,0.42172688,cluster0_pred,3.0,1
0.4518147,0.095125586,0.093485825,0.091045335,0.089383386,0.10716455400000001,0.045189105,0.38276535,0.43765938,0.5195845,0.49387774,0.5665036999999999,0.54856205,0.56347615,0.5557678,0.5460027,0.56092936,0.106360756,0.10968476,0.5272973000000001,0.52122,0.62572235,0.28773513,0.34259632,0.46367565,0.7835536,0.15495431,3.0,2.0,0.45128927,0.47896957,0.43793947,cluster1_pred,2.0,3
0.45239684,0.21263367,0.21444555,0.21606094,0.21618597,0.2726176,0.011692896000000001,0.467847,0.48899440000000005,0.62974733,0.6456257,0.6838895,0.64380616,0.65668154,0.5854428,0.59933287,0.6103026,0.20651239,0.22339012,0.6338278,0.6462029,0.60310584,0.54497474,0.860483,0.6877948,0.95726675,0.15811436,3.0,0.0,0.44996098,0.45590976,0.42824998,cluster1_pred,2.0,3
0.44467170000000006,0.40101963,0.40091994,0.40277258,0.40141720000000003,0.44390658,0.0097405575,0.4514856,0.42497683,0.5884647,0.613265,0.6133447,0.62259954,0.5920046,0.5380279,0.5255905,0.5045784000000001,0.41556624,0.40981582,0.68080497,0.740302,0.4925639,0.505893,0.6845974,0.6041699,0.93587893,0.2717828,3.0,0.0,0.44787627,0.45499036,0.4242032,cluster1_pred,2.0,2
0.43076670000000006,0.1280776,0.13662358,0.13001125,0.14035305,0.16940102,0.017119287,0.52269495,0.5340611,0.6242223000000001,0.62377685,0.62417203,0.61679155,0.56921786,0.52230316,0.5075228,0.52594346,0.15353979,0.14452448,0.51937586,0.53024495,0.58014816,0.33221069999999997,0.45308384,0.23438467,0.8664991,0.13812698,3.0,2.0,0.44568077,0.48920384,0.45031044,cluster1_pred,2.0,3
0.46499303,0.9312360000000001,0.9353556000000001,0.93031096,0.93411237,0.9306156999999999,0.006662784000000001,0.45363927,0.47813842,0.5826498999999999,0.62494284,0.6350146,0.6406434,0.64297414,0.6674989,0.6362085999999999,0.70908785,0.9123617,0.8633946,0.7911309,0.7917626999999999,0.6702922,0.69933665,0.83774495,0.8170624,0.75204426,0.35808083,3.0,1.0,0.39887068,0.44908348,0.39836422,cluster1_pred,2.0,3
0.38985008,0.0793335,0.07844356,0.08017985,0.08130283,0.10380041599999999,0.029015606,0.45121756,0.44196227,0.54673195,0.5518574,0.5809884,0.5249439,0.5333095999999999,0.4998694,0.5044582999999999,0.51944965,0.09128432,0.10676515,0.5909506,0.62688655,0.5322704,0.26167184,0.11235998,0.08699641,0.7689035,0.09075888,2.0,2.0,0.4213005,0.5109441,0.4397103,cluster1_pred,2.0,1
0.43536990000000003,0.4169361,0.4167081,0.41775945,0.41819987,0.37240306,0.008377355,0.44525206,0.46316075,0.56065345,0.6164945,0.6514303000000001,0.6311515999999999,0.6354291999999999,0.62740904,0.67382616,0.7265235999999999,0.37685084,0.39938766,0.75894946,0.7459363,0.6979444,0.8331482,0.57185745,0.6378229999999999,0.62195843,0.16709459,3.0,0.0,0.44877413,0.47139966,0.4283506,cluster1_pred,2.0,2
0.41855633,0.7072866999999999,0.706738,0.70101166,0.69903034,0.67719465,0.008348294499999999,0.42330408,0.42957038,0.49425754,0.53346056,0.569788,0.5649595000000001,0.5336209,0.52109575,0.5002022,0.49787635,0.72329915,0.7233299,0.6874954000000001,0.7452174,0.49871206,0.44664642,0.18394649,0.34799206,0.68575436,0.26823020000000003,3.0,1.0,0.4337292,0.449999,0.4563461,cluster2_pred,,2
0.5058057,0.69758767,0.70350575,0.70076185,0.70164096,0.6799246,0.005899285,0.46900564,0.51426756,0.5935914000000001,0.60467696,0.61472523,0.5838762,0.5736321,0.5218026,0.54853326,0.56606156,0.7317319999999999,0.6785759,0.63718784,0.6876379,0.5056725999999999,0.48370436,0.44532259999999996,0.24572517,0.6812665,0.2621925,1.0,1.0,0.43163648,0.46359128,0.4647348,cluster2_pred,,3
0.45363927,0.92762995,0.9290154,0.92369175,0.9322476000000001,0.92865145,0.0064012394,0.45064622,0.47384512,0.6112894,0.60322195,0.65635157,0.64168125,0.66711724,0.62883884,0.694121,0.7684033,0.9110599,0.85910195,0.7880319,0.7852735,0.67831117,0.6924,0.8635290000000001,0.7777225999999999,0.751215,0.36422437,3.0,1.0,0.402919,0.44734386,0.39540422,cluster1_pred,2.0,3
0.19408546,0.30713752,0.30395326,0.30310977,0.30159125,0.25294966,0.007938805,0.42025307,0.41776446,0.5253074999999999,0.5331793,0.5616017,0.5715159000000001,0.58731437,0.57724136,0.5934441999999999,0.6041264000000001,0.30162108,0.29436090000000004,0.69914025,0.7341258,0.56009585,0.5235721999999999,0.20917836,0.38331228,0.6050251999999999,0.10744671,2.0,2.0,0.43253174,0.49096107,0.4288386,cluster1_pred,2.0,2
0.45233557,0.6119124,0.6127549,0.6134632,0.61213326,0.58129257,0.0041081007,0.45351493,0.5350998,0.59131855,0.61783797,0.7177342,0.68742615,0.68616974,0.6754821,0.70691884,0.7117053000000001,0.5791595,0.5649754,0.7020569999999999,0.66560316,0.74507064,0.6926451,0.7773909999999999,0.76739573,0.6935059,0.28495349999999997,3.0,1.0,0.43785402,0.45627955,0.3900059,cluster1_pred,2.0,2
0.43750020000000006,0.84456605,0.87580806,0.8351443000000001,0.842367,0.834001,0.03118722,0.4978661,0.7790722,0.93061596,0.957289,0.77629036,0.70610404,0.45527905,0.40369135,0.35854223,0.35514995,0.9502125,0.68920755,0.25708038,0.31301108,0.40238732,0.39898783,0.6940764,0.45036826,0.7362348000000001,1.0,3.0,1.0,0.35314876,0.47146988,0.38710222,cluster1_pred,2.0,2
0.47257945,0.25739866,0.2697663,0.26102159999999996,0.27237692,0.22302239,0.0067975195,0.50397444,0.5268235,0.61679125,0.63562906,0.6507153,0.6287927,0.62395835,0.61529994,0.62307674,0.6301190999999999,0.23890303,0.24289507,0.69992954,0.70568925,0.6356743,0.8412099000000001,0.8562886999999999,0.7816194000000001,0.6097281999999999,0.07532520599999999,3.0,0.0,0.43883488,0.46807593,0.42869535,cluster1_pred,2.0,1
0.49377337,0.68017906,0.68175036,0.6801549,0.68013424,0.65476555,0.0027898096,0.46064392,0.48065543,0.59943426,0.6556991999999999,0.7206701,0.73816526,0.7338485,0.73497194,0.7298911,0.71814513,0.6630906999999999,0.622065,0.68964833,0.6618838,0.719745,0.6825573,0.91289186,0.95349395,0.69696337,0.29147449999999997,1.0,1.0,0.41417181,0.44376174,0.37804472,cluster1_pred,2.0,2
0.44408727,0.57000744,0.56700647,0.5497689,0.5505966999999999,0.5102985,0.01732271,0.31866288,0.29718049999999996,0.46632847,0.52382696,0.5779659,0.60830665,0.59626377,0.5730783,0.5921255,0.61439794,0.5760949000000001,0.5379446,0.6366151999999999,0.63211566,0.6472908,0.41694364,0.548639,0.76293486,0.69241285,0.32541293,3.0,1.0,0.4418495,0.42977628,0.3688271,cluster0_pred,3.0,2
0.4429026,0.60457593,0.61648434,0.6097165,0.6176031999999999,0.5869744,0.007489688,0.48652887,0.59118485,0.657517,0.6364321999999999,0.63027865,0.62490773,0.5885933000000001,0.5705859000000001,0.6095265999999999,0.6209594,0.60532373,0.57992333,0.69190335,0.714939,0.58922565,0.6125052,0.62453586,0.3590491,0.698059,0.29544240000000005,3.0,1.0,0.44972658,0.46463883,0.44224548,cluster1_pred,2.0,3
0.48504183,0.89654315,0.905644,0.902835,0.90912473,0.9129729,0.01477331,0.4754027,0.5977631999999999,0.73445874,0.7587654,0.7442864,0.6735369000000001,0.66917723,0.7253564,0.68431795,0.72284555,0.8885671,0.8406815000000001,0.80777824,0.84074754,0.5907760999999999,0.67439246,0.8273556000000001,0.56948566,0.76642966,0.5863614,1.0,1.0,0.4008768,0.4747097,0.40017846,cluster1_pred,2.0,2
0.38420516,0.28786373,0.29027846,0.2906207,0.29040277,0.24148814,0.0065174815,0.44932264,0.50699466,0.5980788,0.61370444,0.6575153,0.6223918,0.644352,0.6291398,0.6343169,0.64953184,0.27054736,0.26186958,0.6583899999999999,0.6501001000000001,0.66217554,0.6414496000000001,0.8687474000000001,0.87833023,0.5663255,0.12707946,2.0,0.0,0.44686785,0.46731517,0.3902254,cluster1_pred,2.0,1
0.48896244,0.3916936,0.39507709999999996,0.3902835,0.39644453,0.43793648,0.009722064,0.44467170000000006,0.46778518,0.6055212,0.6156008000000001,0.571401,0.5100625,0.56026167,0.5724941,0.5954464,0.60869247,0.40676865,0.41826162,0.623748,0.65138006,0.5613836999999999,0.46325716,0.51752734,0.35408297,0.953407,0.28048748,1.0,2.0,0.45456135,0.4486232,0.43424267,cluster0_pred,3.0,3
0.42781088,0.22991794,0.22812034,0.22904960000000002,0.22824465,0.17781347,0.012659818,0.44583455,0.44072378,0.5564951,0.59377235,0.61349535,0.6146423000000001,0.6175858,0.62049,0.65373117,0.6630218000000001,0.20988661,0.20429814,0.6326005,0.61049074,0.69177794,0.54417986,0.6225823,0.7440956,0.57203054,0.13844346,3.0,0.0,0.44990295,0.47531387,0.40741885,cluster1_pred,2.0,2
0.3954156,0.22258145,0.21941821,0.21955789999999997,0.22240178,0.2726638,0.012385065,0.45224949999999997,0.4715289000000001,0.60419965,0.61979157,0.62909347,0.6485923000000001,0.6262445,0.6399219,0.683276,0.7019584,0.19792823,0.19140683,0.7027233,0.7104138000000001,0.6313486999999999,0.6439389,0.8531920000000001,0.7253326,0.9845963,0.17460193,2.0,0.0,0.44903064,0.45531556,0.4282481,cluster1_pred,2.0,3
0.44823828,0.25926384,0.25857782,0.25914824,0.2584535,0.29259065,0.013193475,0.4660732,0.48713714,0.58427733,0.6100186,0.59387946,0.5993712,0.5980446,0.5786718000000001,0.5857485,0.61345404,0.23723646,0.24526423,0.71151066,0.7349805,0.5927039000000001,0.65120995,0.48314923,0.37167573,0.9556756999999999,0.14619514,3.0,0.0,0.4404699,0.47340956,0.44686657,cluster1_pred,2.0,1
0.45920673,0.45896542,0.46506712,0.46346948,0.46780208,0.42321570000000003,0.010284781,0.4824639,0.47777432,0.5340404000000001,0.5826106,0.60168535,0.5482680999999999,0.54270387,0.5191147,0.51238054,0.5383207,0.46370718,0.49038866,0.74056125,0.80669475,0.4894587,0.5731058000000001,0.379058,0.396876,0.66394114,0.19664426,3.0,2.0,0.44851708,0.4730517,0.45304653,cluster1_pred,2.0,1
0.44583455,0.2295449,0.23209846,0.23154739,0.23421182,0.1839262,0.005133144,0.44757852,0.46055296,0.5839401999999999,0.61171114,0.61635804,0.58196044,0.581897,0.56097955,0.5794795,0.5330564,0.28137740000000006,0.27696013,0.48168975,0.5079703,0.53155315,0.26858658,0.6878691,0.5642514,0.5548908,0.20135976,3.0,0.0,0.44777012,0.46440053,0.4321818,cluster1_pred,2.0,1
0.44637245,0.046505842,0.04369716,0.042962402000000004,0.044256594,0.058688045,0.016013348,0.41745862,0.40977365,0.5239609000000001,0.5327449000000001,0.57145685,0.5520751,0.57242346,0.56035495,0.5535733,0.5817180000000001,0.034797005,0.056867346,0.62424845,0.6303951999999999,0.6169264,0.37018523,0.2377118,0.4325714,0.7085873,0.03550611,3.0,2.0,0.41508895,0.5002106,0.44216287,cluster1_pred,2.0,2
0.46286342,0.26796818,0.26541522,0.2666417,0.26777723,0.31362790000000007,0.014176248999999998,0.43375677,0.500648,0.61060685,0.6281188,0.6652839,0.64385587,0.666039,0.6544960999999999,0.68179077,0.7003378,0.20799847,0.25091672,0.7735163,0.75507593,0.71536106,0.8093275,0.86198384,0.8284018,0.9829357,0.1780381,3.0,0.0,0.4502971,0.45636722,0.41783294,cluster1_pred,2.0,1
0.40340096,0.063541405,0.070363,0.059447974,0.07446544,0.08630339,0.036249034,0.52086407,0.46544003,0.53718174,0.5074822,0.5498930999999999,0.5205063,0.50257885,0.48208782,0.5129909,0.53532785,0.08861748,0.10009011599999999,0.5250564999999999,0.53836507,0.57518744,0.30362684,0.14867702,0.08293719,0.74003273,0.16319337,2.0,2.0,0.43718952,0.49936256,0.44464463,cluster1_pred,2.0,3
0.45283884,0.59114647,0.5933615,0.5877357,0.5941074000000001,0.55502176,0.007922954,0.45400593,0.44378456,0.56604916,0.5714253,0.6232126,0.59884006,0.5809161,0.5591913000000001,0.56991017,0.59227747,0.60021055,0.62109184,0.6852999,0.7203225000000001,0.55675435,0.5231015,0.62330335,0.61578727,0.7029426,0.25826252,3.0,1.0,0.44042698,0.45066267,0.42090222,cluster1_pred,2.0,1
0.44127008,0.01753295,0.018274494,0.01723491,0.02225261,0.02571794,0.029441818999999998,0.4616799,0.39985126,0.53065145,0.5123369000000001,0.55470556,0.50131524,0.49039343,0.44142747,0.47984025,0.51771015,0.035881575,0.055833466,0.5752438,0.6083211,0.5359609000000001,0.26316053,0.16685775,0.113839366,0.693593,0.08642796,3.0,2.0,0.42005065,0.5070263,0.44524616,cluster1_pred,2.0,2
0.5776871,0.28363590000000005,0.2874192,0.28087923,0.28269517,0.28807327,0.022643426,0.45128912,0.4997705,0.62008834,0.6648899,0.6319019,0.63697296,0.6220005,0.5678852,0.48876137,0.47866926,0.28696507,0.3152719,0.6535755,0.7058076,0.50491893,0.5035406,0.8206652,0.6924075,0.8176618,0.44881374,1.0,0.0,0.46844366,0.45613557,0.39126843,cluster0_pred,3.0,1
0.51368624,0.84643126,0.86113876,0.85088056,0.8639979999999999,0.8699085999999999,0.008353578,0.53850806,0.54242676,0.59624904,0.5836216999999999,0.6018366999999999,0.6139448000000001,0.61016876,0.58375514,0.58657324,0.55421174,0.9160931000000001,0.83520836,0.48036566,0.48511502,0.5867861,0.37872046,0.34936097,0.25732675,0.76656157,0.37113664,1.0,1.0,0.3787952,0.46031037,0.5013193,cluster2_pred,,2
0.44060249999999995,0.5814474000000001,0.5816758000000001,0.58236545,0.57856786,0.53668386,0.005053888,0.42722959999999993,0.49760255,0.63093036,0.6938306,0.7086932,0.6897767,0.66347015,0.63190764,0.6489623999999999,0.6788149,0.54982966,0.5277470000000001,0.7498097,0.74879843,0.66483974,0.68240124,0.793898,0.6819236999999999,0.6826571,0.29017752,3.0,1.0,0.4489489,0.4688781,0.3973295,cluster1_pred,2.0,1
0.41436037,0.2026859,0.20387869,0.20419633,0.20686226,0.25191584,0.014429868,0.474983,0.39331479999999996,0.5256109,0.53406113,0.5627393,0.5451223000000001,0.55504465,0.5246894,0.5639418,0.5804029,0.20338622,0.23046361,0.6408678000000001,0.6594343,0.5887851,0.4379719,0.24979487,0.34955123,0.9505544,0.17631067,3.0,2.0,0.4328056,0.47191966,0.4475174,cluster1_pred,2.0,2
0.24873409,0.25864214,0.25546992,0.24728362,0.25596717,0.28088459999999993,0.050330173,0.4901571,0.5746374,0.6890903,0.6957768,0.6048994000000001,0.48765573,0.49047202,0.46827677,0.48929036,0.488324,0.2948748,0.28757522,0.46874976,0.5061182,0.49991515,0.33603728,0.5086590999999999,0.27840498,0.93373495,0.26491079999999995,2.0,2.0,0.4599569,0.45539296,0.4592283,cluster0_pred,3.0,3
0.434354,0.06926137,0.06837395,0.06119645,0.068000995,0.077263564,0.03179749,0.40340096,0.4960702,0.54002005,0.51945406,0.5181374,0.5113077,0.500839,0.45894480000000004,0.46231082,0.50568396,0.08740052,0.09596564,0.5210832000000001,0.53531617,0.571871,0.2691165,0.23263235,0.12662691,0.74439406,0.17140909,3.0,2.0,0.4419061,0.49387506,0.4471222,cluster1_pred,2.0,2
0.3931934,0.17980602,0.18647438,0.15374048,0.15303332,0.13232768,0.019235421000000003,0.29284307,0.39864099999999997,0.53727823,0.62871194,0.70020443,0.6627069999999999,0.6586424,0.70942867,0.7453602,0.75675404,0.11669902,0.093085535,0.64433074,0.5699363000000001,0.8294069,0.5096480999999999,0.68356943,0.80711967,0.73512375,0.5345238,2.0,0.0,0.46577626,0.4605174,0.2885243,cluster0_pred,3.0,3
0.47616184,0.21014674,0.22687717,0.21231423,0.22488809999999998,0.24256529999999998,0.07565774,0.52864486,0.5777781,0.7041050999999999,0.75095385,0.7018188,0.64783657,0.6247048000000001,0.63484997,0.59177804,0.49426440000000005,0.25510997,0.17863765,0.41862875,0.40218398,0.62698096,0.40343907,0.83463764,0.6079816,0.93990237,0.29493317,3.0,0.0,0.44963375,0.44345325,0.41600803,cluster0_pred,3.0,3
0.5788229,0.4475255,0.47774738,0.44561008,0.46755344,0.45143485,0.015745517,0.60199416,0.6841873,0.61694473,0.49042640000000004,0.5057084,0.47595940000000003,0.42317727,0.39438713,0.4294449000000001,0.43660104,0.53805125,0.5266173000000001,0.28447282,0.28529352,0.55097795,0.31547382,0.2669424,0.12314012,0.73443,0.66760975,1.0,2.0,0.42702886,0.41454178,0.47296807,cluster2_pred,,1
0.42058828,0.26970902,0.27809548,0.26689145,0.26504228,0.23886777,0.009027254,0.42799896,0.62046635,0.80879503,0.8034749,0.7663229,0.6988969,0.72906095,0.7158248,0.6800491999999999,0.59466624,0.27839822,0.18074669,0.33595577,0.23495004,0.8257319,0.43884626,0.9027109,0.69651526,0.72217643,0.5830616999999999,3.0,0.0,0.405835,0.434903,0.31671914,cluster1_pred,2.0,2
0.49365607,0.2219597,0.22314769,0.21855877,0.22737443,0.24563086,0.028999755,0.47966066,0.5149720999999999,0.6240254,0.62860435,0.64151335,0.6072846,0.56142354,0.55572754,0.57128054,0.5833678000000001,0.21483715,0.20607913,0.54861635,0.51678634,0.6971561,0.45355883,0.7110724,0.47453779999999995,0.9427523000000001,0.22578941,1.0,0.0,0.46906298,0.45897987,0.43589538,cluster0_pred,3.0,2
0.459225,0.22693358,0.23371458,0.22605221,0.23545499,0.27218682,0.030193877999999997,0.4992478,0.55616146,0.6704594,0.71293724,0.7033578,0.66915745,0.68797374,0.71295613,0.76918143,0.7826991999999999,0.18887936,0.18599288,0.6580276999999999,0.6095998,0.7656337,0.691068,0.88384557,0.79785097,0.98496884,0.2184062,3.0,0.0,0.46005222,0.4545625,0.4057115,cluster0_pred,3.0,3
0.49392793,0.20392938,0.20450026,0.20107406,0.20437592,0.24859613,0.02501054,0.42572692,0.44772464,0.53916085,0.56004006,0.59305936,0.6044058000000001,0.5737339,0.5697849,0.56394166,0.5718260000000001,0.20690148,0.22332310000000002,0.6277738,0.64749724,0.58272964,0.43807963,0.4709339,0.62787336,0.9732978999999999,0.1547927,1.0,0.0,0.4421068,0.45818156,0.4445666,cluster1_pred,2.0,1
0.24487317,0.84543645,0.8421184000000002,0.8210315999999999,0.8177523,0.8118343000000001,0.018915756000000002,0.12667295,0.15239589,0.29217878,0.30958906,0.3570151,0.35677338,0.3784729,0.38302547,0.42728132,0.5358841999999999,0.88246065,0.9201385,0.6563193,0.6854091999999999,0.56526196,0.31202623,0.049503385999999996,0.16789575,0.7300409999999999,0.65409356,2.0,1.0,0.4492321,0.37871993,0.4033626,cluster0_pred,3.0,1
0.46552354,0.17309126,0.16994032,0.1601099,0.16422178,0.14517339999999998,0.010440651,0.3912387,0.49104545,0.48508009999999996,0.53756803,0.50677574,0.5006738000000001,0.5364861,0.65720683,0.6123093000000001,0.60027486,0.14199375,0.20508227,0.7021635,0.71239096,0.6246729999999999,0.4940331,0.24025548,0.34358740000000004,0.7507643,0.5362130999999999,3.0,2.0,0.4544919,0.46234813,0.43883485,cluster1_pred,2.0,2
0.42799896,0.23613529,0.27399305,0.23729238,0.2683988,0.24251972,0.025554762999999998,0.6348676,0.78063774,0.81586176,0.7670623000000001,0.7340126,0.74756455,0.7256764,0.688631,0.59069407,0.57439715,0.2844571,0.17876127,0.29216179999999997,0.21339694,0.75808644,0.44802743,0.74106914,0.45432582,0.72603524,0.60064244,3.0,0.0,0.41922233,0.4291858,0.39619327,cluster1_pred,2.0,3
0.41745862,0.052225812999999996,0.049699154,0.049706504000000006,0.04823471,0.06464872,0.022105992,0.41065523,0.4326710999999999,0.5409915,0.55723435,0.5845437,0.5880504,0.5882701,0.56642777,0.58346504,0.6086686,0.034690548,0.047476552000000005,0.62844783,0.6290777,0.6321431,0.43665218,0.41260138,0.6020606,0.7095095,0.032096013,3.0,2.0,0.42192104,0.48982564,0.4345848,cluster1_pred,2.0,2
0.43653244,0.19124596,0.18908504,0.19258150000000002,0.1926902,0.1413915,0.0036167135,0.44525249999999994,0.46524899999999997,0.56647515,0.58619773,0.6013272,0.59139436,0.5752054,0.56236345,0.5651739,0.55839133,0.20899765,0.20072849,0.5608618000000001,0.5743903,0.58301777,0.26057082,0.54241997,0.45941934,0.5185223,0.089118145,3.0,2.0,0.4445608,0.49141067,0.44177577,cluster1_pred,2.0,2
0.40618390000000004,0.22631186,0.23309298,0.204571,0.21183491,0.2264712,0.032582123,0.42717728,0.4427456,0.5139156,0.51105314,0.52951765,0.51604223,0.5192359999999999,0.53490585,0.53028536,0.55762696,0.2216245,0.23858160000000003,0.5984811,0.6144706999999999,0.58549166,0.33270606,0.14760175,0.16654259,0.9152365,0.22966945,2.0,2.0,0.44596666,0.4823685,0.44443643,cluster1_pred,2.0,2
0.39284173,0.5501119000000001,0.5493536,0.5402773,0.5431377,0.53264135,0.0067658169999999995,0.44101307,0.5161718,0.58859605,0.58156973,0.5511255,0.5102349,0.5368039000000001,0.57727474,0.62520415,0.7271595999999999,0.51441664,0.47866857,0.6308366999999999,0.56493264,0.8043395000000001,0.50941646,0.44087020000000005,0.31261835,0.740985,0.6836899000000001,2.0,1.0,0.4396263,0.44930646,0.37764484,cluster1_pred,2.0,3
0.4415818,0.119746335,0.1215813,0.12026976,0.11872203,0.13995887,0.028463457,0.42613164,0.42659456,0.49659052,0.40608320000000003,0.5167042000000001,0.50666517,0.5222223,0.49655905,0.5464428000000001,0.56091744,0.13952415,0.16915303,0.5399826,0.54835963,0.5914099,0.26800840000000004,0.022768985,0.087820806,0.8145982,0.17742388,3.0,2.0,0.4397405,0.49460748,0.4403818,cluster1_pred,2.0,1
0.45607284,0.7234519,0.7312283,0.70500815,0.7325957,0.72181046,0.014585738000000001,0.47947153,0.37048978,0.47069859999999997,0.7049327,0.7226539000000001,0.7528017,0.7674857,0.7665017,0.85399765,0.8866379999999999,0.71437186,0.63067216,0.6079263,0.49550816,0.9189576999999999,0.5349246999999999,0.6519732,0.7629055,0.7040986,0.7407244000000001,3.0,1.0,0.40189493,0.43150797,0.33615005,cluster1_pred,2.0,3
0.6120194,0.21897537,0.24241671,0.22243038,0.24142216,0.21316839999999998,0.018461354,0.49160287,0.3549906,0.43337896,0.408018,0.36491793,0.33496088,0.33004087,0.28881136,0.32154396,0.36646599999999996,0.35232565,0.32689932,0.21262075,0.22694118,0.4993013,0.11480602,0.17944148,0.11537327,0.71194893,0.5780179,1.0,2.0,0.46559322,0.41970706,0.4824595,cluster2_pred,,3
0.45901567,0.8482964,0.8677275,0.8527538,0.85206366,0.8442122,0.013204043,0.50025505,0.4094764,0.6074425,0.6101893,0.6684938,0.8190164000000001,0.89094144,0.9332914000000001,0.76785433,0.73397446,0.9201617,0.7174236999999999,0.38726598,0.32777187,0.73067904,0.434601,0.69569314,0.7764785,0.73360807,0.9214544,3.0,1.0,0.32859752,0.46138477,0.35238132,cluster1_pred,2.0,3
0.48013744,0.3097488,0.31464446,0.3123517,0.31551465,0.26721272,0.00784634,0.45455578,0.45846605,0.564812,0.59935313,0.65429455,0.6362057,0.62841964,0.6204900999999999,0.6084307,0.6445966999999999,0.29852355,0.2937824,0.69139516,0.70008117,0.6261238,0.6863942,0.8001225000000001,0.84140337,0.5931076,0.12455387,3.0,0.0,0.44204563,0.46997973,0.40673095,cluster1_pred,2.0,1
0.43753815,0.23625962,0.23371458,0.22979893,0.23110391,0.25821415,0.029554546,0.41256952,0.40390253,0.525601,0.5244213000000001,0.58509696,0.5931699,0.62150306,0.6062664000000001,0.5857482,0.6053795999999999,0.20727164,0.24663122,0.6985269000000001,0.6988468000000001,0.6493783000000001,0.5545661,0.47448933,0.67410135,0.9266105,0.15737504,3.0,0.0,0.4417379,0.45833832,0.44094062,cluster1_pred,2.0,2
0.45629954,0.22966924,0.23197414,0.23304608,0.23073098,0.18036048,0.013674295,0.44292772,0.44802976,0.5348719,0.5626785,0.60633737,0.5924054,0.5809413,0.5717054,0.5794795,0.60182315,0.22202761,0.25332674,0.645987,0.6537354999999999,0.61789256,0.49328732,0.36297929999999995,0.47263935,0.55322254,0.13517681,3.0,2.0,0.44181192,0.49188668,0.43686745,cluster1_pred,2.0,3
0.36657608,0.83250433,0.8291895,0.80067444,0.8059423000000001,0.80798274,0.013637308,0.28424340000000003,0.2761872,0.34727776,0.34453163,0.3886783,0.32311058,0.37194140000000003,0.41659185,0.50748456,0.5535274,0.8967444,0.89885026,0.5340013000000001,0.57461816,0.50683856,0.28482664,0.052295502,0.11144108,0.76377213,0.5181632,2.0,1.0,0.42246217,0.39419457,0.4687315,cluster2_pred,,1
0.4562782,0.0,0.004475381,0.0013737937,0.005594229300000001,0.008800133,0.032082047,0.4848481,0.47995248,0.5728017,0.5268043,0.53505874,0.5228109000000001,0.5344452,0.54360825,0.5690188,0.5599213000000001,0.018810011,0.01604351,0.53854394,0.55450124,0.57151794,0.28393468,0.13122745,0.09631684,0.65742767,0.08143974,3.0,2.0,0.42334732,0.51126873,0.44145504,cluster1_pred,2.0,2
0.44467170000000006,0.23265357,0.22998507,0.23541902,0.23359025,0.18328948,0.0,0.44525295,0.4537696,0.5627329000000001,0.5722458,0.5998955,0.5856667,0.57424974,0.5526755999999999,0.56074625,0.5791199,0.23015459,0.22716045,0.68454534,0.7242566,0.5444821999999999,0.5527955,0.26351768,0.35996193,0.5860036,0.09045393,3.0,2.0,0.42640263,0.50162935,0.43747747,cluster1_pred,2.0,2
0.40378824,0.39355883,0.3953257,0.39403024,0.39955243,0.44166782,0.024638036000000002,0.4923687,0.46166992,0.51536226,0.50814635,0.50429225,0.51203746,0.5359881,0.51775324,0.5196028,0.50843453,0.40757114,0.42274198,0.72740865,0.8059084,0.4544729,0.50161946,0.15762837,0.12584265,0.9392158000000002,0.29633304,2.0,2.0,0.44663695,0.4698996,0.44987044,cluster1_pred,2.0,2
0.467847,0.21387714,0.21382397,0.21356314,0.21245648,0.26754135,0.019137671000000002,0.44853416,0.5201942,0.6227026999999999,0.64792067,0.6509654,0.6479415,0.58375925,0.5829251,0.58353645,0.59289896,0.20589904,0.22458518,0.62915885,0.64622474,0.58991003,0.5090219,0.66357034,0.49424776,0.95726675,0.16530949,3.0,0.0,0.4509697,0.46862978,0.44117856,cluster1_pred,2.0,2
0.49106833,0.8904502000000001,0.9030334000000001,0.8773573,0.8965689,0.8951555,0.010308558,0.45067254,0.6036609000000001,0.6985687,0.9587576999999999,0.8951325000000001,0.90439767,0.8493653,0.8814726999999999,0.9028556999999999,0.86422795,0.79580426,0.78007925,0.94453114,0.8844627,0.86285657,0.770105,0.9499110999999999,0.8748345,0.7482770000000001,0.72608286,1.0,1.0,0.4031927,0.48382756,0.33578438,cluster1_pred,2.0,1
0.4650205,0.20131807,0.20959722,0.20294742,0.21245648,0.16164011,0.011737808,0.49757934,0.5090817,0.603069,0.5810161,0.6045478,0.58667743,0.5834904000000001,0.5723974000000001,0.58561033,0.6041262,0.21796711,0.22418627,0.5510348,0.54903054,0.6207824000000001,0.39751807,0.52854013,0.32977226,0.5564446999999999,0.15380502,3.0,2.0,0.4553983,0.4845971,0.44973296,cluster1_pred,2.0,2
0.4853147,0.86458594,0.8612631,0.8487573,0.8554200999999999,0.8477466,0.011782718999999999,0.40761420000000004,0.41108403,0.6416407,0.6585453,0.7034443,0.5976942,0.5971138,0.5843734,0.560921,0.6061208,0.85997164,0.78822774,0.5650813,0.5166994,0.74371624,0.47250742,0.6184272,0.55753344,0.7394746,0.7236986999999999,1.0,1.0,0.3757125,0.47364077,0.35677168,cluster1_pred,2.0,2
0.43594995,0.36881372,0.37046245,0.36455604,0.36263055,0.31547824,0.005587545,0.40688070000000004,0.39584854,0.5194863000000001,0.5419494,0.55551726,0.54658407,0.55831754,0.5367606,0.544057,0.5527982,0.37986085,0.38942432,0.64982235,0.69085735,0.5329235999999999,0.36712041,0.23373966,0.31329873,0.6033289000000001,0.13940297,3.0,2.0,0.4448469,0.48834267,0.4322498,cluster1_pred,2.0,2
0.47138804,0.15866698,0.16994032,0.15798676,0.17018895,0.15202443,0.010630866000000001,0.5261246999999999,0.5489443,0.6095175,0.5558864,0.6150753999999999,0.595078,0.6054124,0.5633649000000001,0.6149814,0.5445916000000001,0.15777,0.18437156,0.65860564,0.6921883000000001,0.55420804,0.5147894000000001,0.31911597,0.26236066,0.7536802,0.46663254,3.0,2.0,0.45852518,0.4719187,0.45732918,cluster1_pred,2.0,3
0.45397434,0.22283013,0.22973646,0.22168103,0.23197415,0.18163401,0.017061166000000003,0.48478892,0.48977536,0.61304927,0.62685984,0.6632418000000001,0.67259336,0.66538256,0.65924114,0.635339,0.6426223000000001,0.21128947,0.19597045,0.60954213,0.5822338,0.69978064,0.5987097,0.9040584999999999,0.9334215,0.5750132,0.14999557,3.0,0.0,0.45228603,0.46737555,0.3686574,cluster1_pred,2.0,3
0.44095126,0.20330763,0.20325708,0.19420506,0.19318746,0.22652109,0.020149507,0.37398514,0.40462503,0.49446540000000005,0.5323101,0.5704119000000001,0.5761005,0.5923483,0.5499818000000001,0.55332553,0.5595818,0.17970617,0.21263443,0.68129,0.69313705,0.6155991999999999,0.48323950000000004,0.43274802,0.6501019,0.95397055,0.17966817,3.0,0.0,0.43811285,0.45735,0.4460935,cluster1_pred,2.0,1
0.502872,0.7741855,0.7998508000000001,0.777195,0.7882894,0.7806874,0.044866797,0.50227106,0.3371027,0.23982440000000002,0.24212185,0.28130203,0.27958414,0.28771365,0.2534151,0.27192074,0.32875973,0.8850562,0.911766,0.5378398,0.6417596,0.34443748,0.27589613,0.07290996599999999,0.030681264,0.7220972,0.6932961999999999,1.0,1.0,0.45713,0.46842697,0.4990253,cluster2_pred,,1
0.3986388,0.09475255,0.095723525,0.097289875,0.097215325,0.11811667,0.013687503500000002,0.44705266,0.445495,0.5689704000000001,0.57876956,0.58751124,0.56557953,0.57217586,0.55104464,0.56692576,0.58383614,0.09345562,0.10992899,0.6306632,0.65379035,0.57462686,0.44014480000000006,0.35747954,0.29263279999999997,0.78927976,0.09856458,2.0,2.0,0.42638803,0.49156904,0.449763,cluster1_pred,2.0,1
0.5063008,0.13379756,0.13413724,0.1278881,0.13463452,0.08191944,0.011140746000000002,0.43420643,0.41672063,0.48621884,0.5036798,0.5007607,0.5037944000000001,0.50988317,0.47275209999999995,0.45277455,0.47119927,0.16970403,0.1799161,0.57084423,0.62913555,0.46988509999999994,0.24390015,0.0556803,0.06426363,0.5376024,0.23773493,1.0,2.0,0.43168437,0.5078287,0.4447446,cluster1_pred,2.0,3
0.4601335999999999,0.3376026,0.33441076,0.32896215,0.33155146,0.35305634,0.018318694,0.41240340000000003,0.54316485,0.6338812,0.72295964,0.70802456,0.6817554,0.63911545,0.6421588,0.6732116,0.65642256,0.3073606,0.28928918,0.69773257,0.7016060000000001,0.640025,0.6222914,0.87673223,0.761073,0.87281066,0.3058528,3.0,0.0,0.45585662,0.46797723,0.3987652,cluster1_pred,2.0,1
0.44735014,0.0174086,0.018150175,0.019857615,0.021506706,0.033831652000000004,0.024077801,0.46074226,0.5176139,0.6379351,0.61617893,0.63194895,0.6105023,0.6178934,0.55557674,0.5697938,0.5598486999999999,0.029561676000000002,0.030955411000000002,0.5522505999999999,0.5704765,0.56888026,0.35835347,0.6862064,0.40483668,0.7088153,0.08170704,3.0,0.0,0.43914384,0.48272252,0.44717702,cluster1_pred,2.0,2
0.45571828,0.22519273,0.22899055,0.22567753,0.22451517,0.173993,0.0030249357,0.42606673,0.47568598,0.57354456,0.59576553,0.59345347,0.5849930999999999,0.5844465,0.57170564,0.58492905,0.6432803,0.22164501,0.20532897,0.61503536,0.6184036,0.62193316,0.46764296,0.5263857,0.42545518,0.5646437,0.13028689999999998,3.0,2.0,0.44876096,0.4869432,0.43973693,cluster1_pred,2.0,2
0.41734570000000004,0.23650832,0.23408751,0.23516923,0.23682247,0.1866006,0.007415715600000001,0.4452531,0.45220423,0.5777032,0.51364595,0.5501491,0.5587131,0.42225498,0.38175678,0.37137008,0.3872972,0.29820904,0.30828187,0.50681406,0.5925001999999999,0.38419804,0.20641133,0.19285478,0.13629009,0.5538168000000001,0.21405979,3.0,2.0,0.4468261,0.4989991,0.45003253,cluster1_pred,2.0,3
0.48549068,0.6514548000000001,0.65763307,0.6529286999999999,0.6583789000000001,0.6320891,0.008459251999999999,0.46951914,0.52897316,0.61762935,0.6220329000000001,0.6267858000000001,0.5973643,0.5890383000000001,0.5980816999999999,0.6003314999999999,0.68614215,0.6634765,0.62742025,0.68234706,0.7080744000000001,0.58004063,0.5960621,0.45934236,0.23912755,0.6876171999999999,0.26836420000000005,1.0,1.0,0.4464385,0.46471605,0.45016256,cluster1_pred,2.0,3
0.38827890000000004,0.15928873,0.15775733,0.15511428,0.15502238,0.18936747,0.011904245,0.4129987,0.43976772,0.53747696,0.53850013,0.59992045,0.5827688,0.58784664,0.56137866,0.5459903,0.539933,0.16448005,0.1721422,0.56183845,0.56379044,0.6131103,0.26540440000000004,0.42627114,0.58930373,0.88316596,0.10692871,2.0,2.0,0.4423847,0.47139958,0.43646115,cluster1_pred,2.0,1
0.4452526,0.23650832,0.23495774,0.23716748,0.23508206,0.18481779,0.0041450867,0.43885799999999997,0.49499348,0.59475267,0.6085221,0.6303164000000001,0.6109366,0.6016535,0.57689565,0.59208184,0.59886205,0.22824214,0.24495135,0.6354241999999999,0.64634526,0.60723126,0.55588955,0.7164842,0.5648054,0.5437236999999999,0.098330244,3.0,0.0,0.44608495,0.47809616,0.43710437,cluster1_pred,2.0,2
0.4455644,0.0946282,0.093237184,0.09704009,0.09646942,0.15175359,0.050214093,0.44645736,0.46552908,0.5676933000000001,0.5861834,0.6092515000000001,0.5745493,0.56625086,0.56114143,0.5732031,0.57558435,0.08013276,0.11033163,0.7340007,0.78827405,0.5185154000000001,0.6993670999999999,0.3142499,0.21514805,0.22621962,0.027791781,3.0,2.0,0.41644382,0.5173847,0.4464113,cluster1_pred,2.0,3
0.42367864,0.20641631,0.20760816,0.19982515,0.19816011,0.20961072,0.044819242999999995,0.40618408,0.3956416,0.50140303,0.50865406,0.5122878,0.48765582,0.47704864,0.45578372,0.46059382,0.5101049,0.22138941,0.23735937,0.5756296999999999,0.6051956000000001,0.54510987,0.2418529,0.11267536,0.115471825,0.8839952,0.23526664,3.0,2.0,0.4431251,0.48553312,0.4493186,cluster1_pred,2.0,1
0.3105212,0.48806265,0.49067628,0.47108779999999995,0.47090998,0.4550409000000001,0.010189674000000001,0.33125308,0.38865602,0.45339614,0.38381207,0.42087805,0.38373077,0.39209715,0.39982966,0.38800675,0.39553568,0.5239616,0.5818786,0.53363913,0.57883847,0.49493244,0.30444,0.17211194,0.17037065,0.7317134,0.66899925,2.0,2.0,0.45921394,0.42790598,0.39936987,cluster0_pred,3.0,2
0.45339343,0.5498632,0.54661864,0.5437741999999999,0.5413973000000001,0.49860632,0.0041688634,0.40804166,0.39219484,0.5294651,0.5626776,0.6152843000000001,0.62744486,0.6258703,0.59592456,0.62682277,0.5551008000000001,0.5435821999999999,0.5665505999999999,0.71652937,0.7442085999999999,0.58302224,0.53199404,0.59456575,0.7931182,0.6850153,0.27701390000000004,3.0,1.0,0.4445758,0.4390491,0.3994436,cluster0_pred,3.0,2
0.4660732,0.25428998,0.25484833,0.25540152,0.25472403,0.28790292,0.0114155,0.44823864,0.46472773,0.58682823,0.54887766,0.60485756,0.586969,0.57849556,0.5701815,0.5878379,0.60739815,0.23552881,0.24312061,0.7125746999999999,0.7360104999999999,0.5930414,0.62167233,0.38767615,0.36434537,0.9581318000000001,0.14895196,3.0,2.0,0.4374636,0.47311535,0.44713432,cluster1_pred,2.0,1
0.42979014,0.17222083,0.16907011,0.16485575,0.16272998,0.18659125,0.020120446,0.38886648,0.36455655,0.5423614999999999,0.55271685,0.55667144,0.5631649000000001,0.5413735,0.51677257,0.50755626,0.5511602,0.18120576,0.15981235,0.5153814999999999,0.4996142,0.64792496,0.31188327,0.48300844,0.5539244000000001,0.9444406999999999,0.23519969,3.0,2.0,0.4592086,0.45505768,0.42170215,cluster0_pred,3.0,3
0.45157042,0.31584182,0.31265542,0.31222677,0.3119095,0.34262509999999996,0.016168216000000003,0.44467170000000006,0.3966205,0.51716274,0.55457544,0.5964368,0.58303916,0.5693659000000001,0.5334435000000001,0.5208791,0.5405637,0.33191878,0.30828434,0.5766398,0.5925655,0.58053404,0.32512265,0.29799837,0.49526387,0.9532802,0.18963966,3.0,2.0,0.44404507,0.46157295,0.43426818,cluster1_pred,2.0,2
0.4342455,0.26722208,0.2850572,0.26839015,0.2884137,0.2877604,0.013637308,0.5932424,0.6588940999999999,0.65892005,0.6961767,0.7354089,0.7181806,0.8096915,0.851483,0.82302994,0.80457044,0.18429412,0.22050068,0.87606424,0.84716636,0.7663889,0.757001,0.7515896,0.7676536999999999,0.78587943,0.44185230000000003,3.0,0.0,0.45085004,0.4769443,0.4151645,cluster1_pred,2.0,3
0.49197060000000004,0.21263367,0.21693188,0.20981641,0.21805072,0.24987239,0.04397385,0.48469427,0.54963076,0.6080047,0.60317224,0.6563254,0.66283214,0.70990855,0.7151213000000001,0.72015744,0.7044560000000001,0.19050324,0.17746656,0.6190916999999999,0.57988816,0.73270607,0.59495705,0.7086756,0.71196663,0.97104305,0.21128918,1.0,0.0,0.46381596,0.4577107,0.417875,cluster0_pred,3.0,3
0.42393976,0.5248694,0.53754354,0.5266642,0.523993,0.5120726,0.008179215,0.43308577,0.5189079000000001,0.6317729000000001,0.6263058000000001,0.5706441,0.5494591,0.5281148,0.54461604,0.49445959999999994,0.50216615,0.570236,0.58352447,0.29477787,0.21968724,0.74922174,0.3046687,0.47577664,0.29801443,0.7402221,0.59409213,3.0,1.0,0.39063266,0.4264293,0.4154096,cluster1_pred,2.0,1
0.42839265,0.24745089,0.24950275,0.24990635,0.24912979,0.19920808,0.0061687552,0.45629922,0.46994585,0.56605923,0.5949683000000001,0.6228001999999999,0.60217613,0.6115311,0.61737597,0.62035197,0.6343965,0.24680951,0.21819755,0.5662679,0.54074025,0.68503785,0.4375277,0.63663614,0.73999923,0.5585260999999999,0.12585032,3.0,0.0,0.4517139,0.47384575,0.40773803,cluster1_pred,2.0,2
0.53023976,0.17843819,0.18000996,0.17984264,0.18137741,0.21103802,0.017874861000000002,0.45211184,0.46472773,0.5796139,0.6190389000000001,0.63682413,0.59119195,0.62497187,0.64518183,0.6426845999999999,0.65221965,0.1636511,0.15565251,0.607545,0.5807237,0.6980558000000001,0.51145905,0.67896956,0.6916996999999999,0.94649905,0.19870283,1.0,0.0,0.45831203,0.45620063,0.4194643,cluster0_pred,3.0,2
0.44176468,0.15269832,0.16185977,0.15311603,0.15949777,0.10738934,0.0059151365,0.46036988,0.49864617,0.5727131999999999,0.61569744,0.6786309,0.6503564000000001,0.62268406,0.5768953,0.58390754,0.56135297,0.16624606,0.12732352,0.5855148,0.59968174,0.58715254,0.46489537,0.7889916,0.79936314,0.54208124,0.24885808,3.0,0.0,0.4563745,0.47147432,0.37414908,cluster1_pred,2.0,1
0.44234577,0.25640386,0.25459972,0.2542775,0.2577076,0.20799533,0.002451651,0.44118359999999995,0.4615971,0.5731291000000001,0.57583374,0.6120637,0.6237396,0.63288087,0.6443635999999999,0.6462382,0.6574286,0.23259178,0.23360166,0.69321644,0.6883335,0.66155446,0.75845766,0.73597634,0.7617984,0.6055928,0.07703601,3.0,0.0,0.44140443,0.47153682,0.42314988,cluster1_pred,2.0,1
0.48187524,0.2026859,0.20450026,0.20294742,0.20437592,0.24118915,0.015362446,0.45211235,0.5047963,0.6221884,0.5935303000000001,0.6207936,0.59334797,0.590309,0.61418647,0.60999244,0.67116845,0.1720326,0.18729138,0.68324095,0.6767616999999999,0.66333294,0.6255082,0.6841415,0.47162238,0.96356505,0.18810970000000002,1.0,0.0,0.452072,0.46517557,0.4452675,cluster1_pred,2.0,1
0.5524945,0.8527729,0.89283943,0.8445110999999998,0.89482844,0.88578796,0.016984552,0.5584522,0.6256590999999999,0.70232964,0.6750276,0.7192618000000001,0.6963977,0.620592,0.5917929,0.5990234999999999,0.5986626,0.90772134,0.8954184999999999,0.6827531,0.7394908,0.500139,0.60993636,0.6251568000000001,0.40225336,0.7416043999999999,0.412891,1.0,1.0,0.40908626,0.46541995,0.463342,cluster1_pred,2.0,1
0.52782303,0.8638398000000002,0.88015914,0.8578744,0.8613874,0.86229235,0.0063219834,0.47660562,0.4571552,0.50777406,0.52079874,0.6185506,0.55865765,0.5869492,0.6081026999999999,0.57559574,0.58201474,0.8810195,0.8357735000000001,0.777208,0.85886973,0.45799540000000005,0.5393701,0.2533906,0.45494372,0.7560177,0.60750616,1.0,1.0,0.41970128,0.44052726,0.43821996,cluster1_pred,2.0,3
0.47576445,0.05533449,0.052834414,0.051080297999999996,0.052088507,0.06168296,0.050044853,0.4062147,0.41625914,0.5186413,0.5299775999999999,0.5461094,0.51411796,0.5044112000000001,0.47380823,0.5075778000000001,0.5113082,0.071910135,0.07908895,0.5628049,0.59280086,0.5409924,0.15229422,0.07942119,0.049695514,0.6791179,0.052060384,3.0,2.0,0.42313862,0.5183377,0.43922684,cluster1_pred,2.0,2
0.44853434,0.15916438,0.1612382,0.1601099,0.15949777,0.19545896,0.012752283,0.42844920000000003,0.43768772,0.5805734,0.5898781999999999,0.6236964,0.59037906,0.57218164,0.53701395,0.5360341,0.55129963,0.16646870000000002,0.17488563,0.5601033000000001,0.56141996,0.6143423000000001,0.30538848,0.7205266,0.60042375,0.8895033000000001,0.10742846,3.0,0.0,0.4541547,0.46220374,0.4352463,cluster1_pred,2.0,1
0.45955340000000006,0.19398159,0.20077078,0.19545397,0.19629537,0.23059549999999998,0.03321617,0.46699354,0.48142266,0.5317177,0.54506415,0.5543811,0.5610086999999999,0.56584114,0.5743353,0.5947359999999999,0.5785302,0.18374291,0.21135269,0.6687270000000001,0.6906644000000001,0.586623,0.5119619000000001,0.15234502,0.2585768,0.94116575,0.17734514,3.0,2.0,0.43226722,0.48367602,0.4509571,cluster1_pred,2.0,2
0.43478918,0.41594129999999996,0.42826954,0.42025727,0.42068622,0.37495009999999995,0.04597374,0.5121146,0.5398681,0.6292669,0.64519626,0.6668198000000001,0.689102,0.72369456,0.72324866,0.7252579,0.7265236999999999,0.37095192,0.37735490000000005,0.7394409000000001,0.71474326,0.72351134,0.8730498,0.85801005,0.9211039000000001,0.6227727,0.17629084,3.0,0.0,0.4503791,0.46496308,0.4007565,cluster1_pred,2.0,1
0.44118359999999995,0.25677693,0.25497264,0.25652555,0.2584535,0.20875935,0.010517266,0.44467170000000006,0.47307694,0.5689704000000001,0.586198,0.64606315,0.63822705,0.65263677,0.6464393,0.64794093,0.6689444,0.23196383,0.23168893,0.69081265,0.68269104,0.66934556,0.7767013,0.75066197,0.7810226,0.60480183,0.07635096,3.0,0.0,0.4421418,0.47370133,0.41850507,cluster1_pred,2.0,3
0.38600759999999995,0.341706,0.34920436,0.33995253,0.34112382,0.32164657,0.0139649,0.44467170000000006,0.43202814,0.6564204,0.6506269,0.6150356,0.5424859999999999,0.52285683,0.4536317,0.43739912,0.35801396,0.46407250000000005,0.36702886,0.20461953,0.23204318,0.46362266,0.21270168,0.6601897,0.45545864,0.72355455,0.6441648,2.0,2.0,0.41266355,0.4133572,0.4084087,cluster1_pred,2.0,3
0.4551379,0.36906242,0.37481356,0.37317348,0.37829438,0.33152404,0.00454665,0.46327627,0.4704674,0.5781187,0.579421,0.59273744,0.56006026,0.5560864000000001,0.53710604,0.56449246,0.57714593,0.3723656,0.39263237,0.6861672,0.7199125,0.56025255,0.5823369,0.41643320000000006,0.29508448,0.6079594,0.12585445,3.0,2.0,0.45010534,0.48420691,0.4441398,cluster1_pred,2.0,2
0.46094984,0.39828402,0.40067129999999995,0.401149,0.40278468,0.3566121,0.004979916,0.44525470000000006,0.47725168,0.5785348000000001,0.6392174,0.70762,0.6833752,0.67876613,0.66685295,0.6544127,0.67684174,0.36804405,0.368379,0.7142399,0.69298285,0.70872515,0.79048795,0.9329039000000001,0.9529315,0.6312412,0.15343395,3.0,0.0,0.447799,0.4646231,0.38312444,cluster1_pred,2.0,3
0.48420733,0.34357125,0.35007459999999996,0.34707132,0.3448533,0.29726714,0.014070573999999999,0.44757888,0.45690066,0.56065416,0.58938706,0.65393645,0.6075666000000001,0.6013347,0.6028444000000001,0.5941254,0.60873264,0.33898008,0.32999029999999996,0.68415457,0.7074971999999999,0.5866164,0.6013904,0.7025733000000001,0.7797094,0.6026376999999999,0.11754737,1.0,0.0,0.44358766,0.4698177,0.41933262,cluster1_pred,2.0,2
0.441058,0.95809495,0.9727747999999999,0.9601599000000001,0.9643212,0.97157186,0.01196765,0.49468127,0.5885679,0.6672286000000001,0.6455649,0.6838295,0.6585209,0.6906414000000001,0.6898566999999999,0.7125564,0.7446679,0.91132146,0.9248449000000001,0.89063483,0.9026642,0.66422707,0.7820344,0.64241225,0.59453166,0.7691574000000001,0.4970516,3.0,1.0,0.41578668,0.45963982,0.41548336,cluster1_pred,2.0,3
0.45688134,0.49365827,0.49589756,0.49594107,0.49912977,0.45530766,0.0044039893,0.46443862,0.47986013,0.5856034000000001,0.59257644,0.6442736,0.60689306,0.6156734,0.60111445,0.65679663,0.6761829,0.4850138,0.4660352,0.7459083000000001,0.77234715,0.59311235,0.70495015,0.68724865,0.696847,0.672309,0.18965743,3.0,0.0,0.45000243,0.45913443,0.42568803,cluster1_pred,2.0,2
0.42839178,0.24968912,0.24664345,0.24603471,0.24465439,0.19462363,0.0055981125,0.42199686,0.46055344,0.5926735,0.60333973,0.6160005999999999,0.58634084,0.57679915,0.5710134,0.5706241,0.5791202,0.23728076,0.22287649999999998,0.58962995,0.5776178000000001,0.6556513,0.43032970000000004,0.6590687,0.45411465,0.55502295,0.11240525,3.0,0.0,0.45422238,0.48212254,0.43640488,cluster1_pred,2.0,3
0.40364179999999994,0.26747078,0.27349576,0.26314476,0.26678270000000004,0.2695194,0.028656313,0.46584824,0.41364864,0.52211225,0.63040566,0.6596021,0.61626446,0.6064046999999999,0.59151417,0.558932,0.5483273,0.29243654,0.24257633,0.56068736,0.5814967,0.5641944000000001,0.4094555,0.5733311,0.6768134,0.827616,0.38768798,2.0,0.0,0.45976716,0.4598495,0.4003492,cluster1_pred,2.0,2
0.42766345,0.045635413,0.046618599999999996,0.048207815999999994,0.05072103,0.06837415,0.017452136,0.46848315,0.5044167,0.58965045,0.59513485,0.64212614,0.628954,0.6455978,0.6195656,0.60239655,0.61588764,0.037614077,0.038610402,0.6021187,0.5981642,0.6377941999999999,0.5031717000000001,0.6975355,0.67824656,0.72576547,0.04314289,3.0,0.0,0.43464443,0.47576895,0.4280717,cluster1_pred,2.0,1
0.44467170000000006,0.8704303,0.8719543,0.8646185,0.8615117,0.8672563,0.009304649,0.36354825,0.35823059999999995,0.5135460999999999,0.52883005,0.53438544,0.47607002,0.45721087,0.42703882,0.42059314,0.43909678,0.94317114,0.91093105,0.505545,0.550794,0.4882154,0.25757036,0.22469583,0.2111591,0.7685074000000001,0.45680448,3.0,1.0,0.3931513,0.43789732,0.47924793,cluster2_pred,,3
0.46191759999999993,0.31148964,0.31141222,0.31035346,0.31501740000000006,0.34640279999999996,0.015584364,0.45157010000000003,0.44924936,0.5294981,0.5214653,0.56034195,0.517077,0.52399534,0.4985486,0.4986516,0.51518786,0.33062991,0.34296733,0.58081007,0.6012184,0.56994843,0.31587753,0.19269112,0.15280324,0.95980436,0.1909662,3.0,2.0,0.44660175,0.47681552,0.43399924,cluster1_pred,2.0,2
0.39007240000000004,0.74533695,0.7472651,0.713126,0.7174291,0.70577705,0.0356916,0.22387223,0.39310643,0.33938357,0.31082392,0.36070812,0.3908479,0.43240142,0.28840652,0.10952876,0.12231444,0.8831334999999999,0.8665895,0.34607983,0.46787772,0.25334415,0.22565933,0.20412794,0.23798417,0.7083673,0.7379302,2.0,1.0,0.41988954,0.41482136,0.40784183,cluster0_pred,3.0,1
0.44220212,0.24832131,0.25285926,0.24416135,0.25472403,0.22764114,0.014723115,0.43479112,0.5240300999999999,0.5879619,0.5595955,0.5755031999999999,0.5496721999999999,0.6552811,0.7455904000000001,0.74191016,0.7106883,0.25273493,0.1994614,0.45093933,0.35367736,0.8430414,0.42297375,0.37894624,0.4234455,0.73103374,0.5248911,3.0,2.0,0.43581173,0.43926308,0.3988088,cluster1_pred,2.0,3
0.43246186,0.23290227,0.23433615,0.23616835,0.23682247,0.1866006,0.0025546837,0.45571864,0.45220423,0.56439614,0.5738403,0.61456907,0.5967851,0.5949619,0.5941945,0.5839074000000001,0.5978744,0.22870363,0.22423178,0.6464281999999999,0.65623736,0.6126803000000001,0.54565114,0.5275068,0.69099104,0.5489834,0.073773116,3.0,0.0,0.43785134,0.48108113,0.43097866,cluster1_pred,2.0,3
0.46900564,0.6902512,0.6939334,0.6855252,0.6965439999999999,0.6745946,0.006705054,0.47553477,0.47378364,0.5791586999999999,0.5700864000000001,0.58659333,0.5594569,0.5245135000000001,0.5306327,0.53705984,0.56303847,0.7310175999999999,0.705782,0.63841313,0.6971021,0.48470616,0.44362219999999997,0.23664418,0.13172986,0.68141466,0.26729876,3.0,1.0,0.43609318,0.46762004,0.46848798,cluster2_pred,,1
0.47515404,0.97314095,0.9884386000000001,0.97951794,0.98856294,0.9879559000000001,0.009117077,0.50862384,0.5473366,0.64719874,0.74378335,0.7681956999999999,0.7459361999999999,0.7399331,0.74371654,0.7727562,0.76712227,0.9260661,0.90887785,0.86612093,0.8441632,0.7461536,0.85533416,0.86643064,0.81599945,0.76047677,0.37525064,3.0,1.0,0.40466195,0.45800686,0.40249327,cluster1_pred,2.0,1
0.49350998,0.29631934,0.29773745,0.29948798,0.29773745,0.24900167,0.014894837,0.45106643,0.46785846,0.57104915,0.5654689,0.6489262,0.62306553,0.6338363,0.62394965,0.6445348000000001,0.6445964,0.26146716,0.28889728,0.7559693000000001,0.7634359000000001,0.644414,0.81284964,0.5732301,0.6030208,0.6098241,0.13357285,1.0,0.0,0.4428903,0.48167184,0.4420869,cluster1_pred,2.0,1
0.4696403,0.23004226,0.22749877,0.22417884,0.2255097,0.2511826,0.030685265,0.43040407,0.44231814,0.5383564999999999,0.592899,0.6224225999999999,0.6138399999999999,0.6351873,0.6317378,0.60037535,0.6174908,0.23693924,0.20881639999999999,0.59189135,0.59996194,0.6043746999999999,0.41585857,0.57981235,0.70740116,0.93728864,0.16075695,3.0,0.0,0.4524052,0.45880365,0.4246348,cluster1_pred,2.0,3
0.50529486,0.20765978,0.21195923,0.20731860000000002,0.21121334,0.25772527,0.022976302,0.4484606,0.47492963,0.59064996,0.5678339,0.6117176999999999,0.6307541,0.6194187,0.61037076,0.60389596,0.64472985,0.20260534,0.19227749,0.63239247,0.6337007,0.631318,0.5314300999999999,0.48021704,0.48514965,0.94338346,0.14370516,1.0,0.0,0.4455955,0.47182336,0.44287425,cluster1_pred,2.0,3
0.44292700000000007,0.26324296,0.26690704,0.26689145,0.266907,0.21741912,0.008136945,0.45571846,0.45220438,0.5947521,0.59855604,0.61421114,0.6122837,0.6096194,0.6097644,0.6166054,0.6281451,0.24977952,0.24926275,0.6866575,0.69913924,0.6152209,0.65505934,0.71008474,0.64836013,0.5454108,0.11562241,3.0,0.0,0.44270566,0.47719884,0.43249297,cluster1_pred,2.0,3
0.45982698,0.22071622,0.22352065,0.2179343,0.21680754,0.2651946,0.011280765,0.41814929999999995,0.49533346,0.5960701,0.6094002,0.64670265,0.60001475,0.61111253,0.639683,0.63275176,0.64472973,0.20191905,0.19522019,0.64636624,0.6423441999999999,0.648346,0.57092565,0.6136517,0.56547284,0.9508373,0.16047485,3.0,0.0,0.45065135,0.46543166,0.44162506,cluster1_pred,2.0,3
0.49409106,0.22220839999999997,0.22314769,0.22392908,0.22426653,0.17373833,0.0031834475,0.44176468,0.45272607,0.5743763000000001,0.56825954,0.57448554,0.57724375,0.5841276999999999,0.53710634,0.53724486,0.5932683000000001,0.20299658,0.24092016,0.7308671999999999,0.76865405,0.5603104,0.60151595,0.30886420000000003,0.2544476,0.5859788,0.103177905,1.0,2.0,0.42778337,0.50178,0.44350216,cluster1_pred,2.0,3
0.37913465,0.3183288,0.32322228,0.32096913,0.32123320000000005,0.353958,0.012863241999999999,0.4550197,0.49878117,0.58870655,0.52146506,0.52424705,0.49309036,0.50698143,0.51058733,0.5524661,0.5459645000000001,0.38061090000000003,0.33623302,0.45017302,0.48375282,0.5053317,0.24822684,0.32872096,0.20548502,0.9361096,0.29842959999999996,2.0,2.0,0.44928744,0.45600304,0.4562577,cluster2_pred,,2
0.474983,0.21574235,0.21444555,0.21106532,0.208727,0.25440562,0.011550235,0.39541528,0.44092363,0.52561116,0.56263816,0.58373016,0.6087974,0.6277251,0.59458745,0.57060087,0.5739702,0.20680961,0.19132678,0.6583859999999999,0.6812691,0.5817581000000001,0.48229110000000003,0.38814902,0.58487725,0.97499245,0.16513495,3.0,0.0,0.43497655,0.46507823,0.44453225,cluster1_pred,2.0,1
0.45688152,0.21847800000000003,0.2201641,0.21730986,0.22227748,0.17170066,0.011782718999999999,0.46560237,0.47046754,0.5610694,0.55909055,0.5905903,0.5573648,0.5634154,0.57343525,0.56926143,0.60248095,0.21054102,0.21374467,0.6281557,0.6289252,0.63171417,0.47808033,0.28340054,0.28549317,0.5374001,0.15735604,3.0,2.0,0.44326115,0.49807635,0.4408385,cluster1_pred,2.0,3
0.4802572,0.52947026,0.5474888000000001,0.5304109,0.5350571999999999,0.49432573,0.01443251,0.45458930000000003,0.44587886,0.524325,0.49982753,0.5280508,0.4859259,0.4843585,0.43907297,0.42876357,0.3988145,0.5932778000000001,0.5873498,0.58372533,0.67398906,0.39042740000000004,0.29224926,0.22901434,0.13118125,0.6814222,0.31219444,3.0,2.0,0.45022595,0.46791583,0.47244716,cluster2_pred,,2
0.44292736,0.2947028,0.29189458,0.29711503,0.29574838,0.24696416,0.0068529984,0.44467170000000006,0.46838033,0.59017783,0.60573137,0.6421259,0.6328362,0.6207722,0.62741005,0.5941255,0.61004853,0.27517962,0.2830487,0.6774412,0.67783886,0.64423233,0.6438621999999999,0.9115931,0.8769212,0.5794961,0.112956055,3.0,0.0,0.44460505,0.46809193,0.39230043,cluster1_pred,2.0,3
0.42881745,0.5414076,0.5588016,0.5397776999999999,0.5568125,0.54733354,0.014260788,0.48308766,0.35527226,0.4996264,0.54519624,0.7053959,0.70423365,0.662796,0.6229975,0.5830518,0.5132095999999999,0.6404493,0.49171367,0.17281008,0.06469019,0.80582136,0.30192226,0.59556854,0.772943,0.7567085,0.77238834,3.0,1.0,0.36628377,0.43834722,0.33403343,cluster1_pred,2.0,3
0.5332521,0.30900276,0.31452012,0.3072312,0.30942315,0.33346190000000003,0.011999352,0.44126454,0.52200603,0.578554,0.58510786,0.62357754,0.64355004,0.6453536,0.6945395000000001,0.6720031999999999,0.7149848000000001,0.31026357,0.2740136,0.61823237,0.61238116,0.64646626,0.49203682,0.5970236,0.6773116,0.8855974,0.37700108,1.0,0.0,0.4541849,0.4584416,0.40570936,cluster1_pred,2.0,3
0.43911615,0.113902,0.11350075,0.11514924,0.1132521,0.14054239999999998,0.017565763,0.41927420000000004,0.49322063,0.5990558000000001,0.59618324,0.6324576999999999,0.6180116999999999,0.6382929,0.6587307,0.71152675,0.73070836,0.07538379,0.08621042,0.66585743,0.6325963000000001,0.72834456,0.621686,0.7793199000000001,0.78486264,0.810716,0.14457454,3.0,0.0,0.45117313,0.46560273,0.40283227,cluster1_pred,2.0,2
0.45408356,0.28612283,0.29027846,0.28774822,0.2920189,0.30623059999999996,0.02249284,0.47559586,0.5274773,0.5833948,0.6031159,0.5876039000000001,0.5508575,0.6133241,0.59615225,0.61846894,0.67696613,0.26982704,0.26621526,0.6514383,0.64290327,0.66117734,0.5426253000000001,0.4330742,0.3037065,0.8459143,0.29299775,3.0,2.0,0.46510774,0.47064653,0.4423372,cluster1_pred,2.0,3
0.5146493,0.29594627,0.2971159,0.29661548,0.29699153,0.33146608,0.010554251,0.42367864,0.43018457,0.5389404000000001,0.58302337,0.6092069,0.62147766,0.6435276999999999,0.6016533000000001,0.59408915,0.6522777,0.3123079,0.31112623,0.56144464,0.55666125,0.6303930999999999,0.37764832,0.43918288,0.57515293,0.95063436,0.19961461,1.0,0.0,0.45177487,0.45835346,0.4253411,cluster1_pred,2.0,2
0.46366367,0.71972144,0.71643466,0.707381,0.70773244,0.686295,0.00988586,0.38650545,0.4183826,0.501898,0.49113786,0.5299645000000001,0.5174946,0.5073162,0.5298389,0.51131546,0.62417626,0.70167047,0.7424921,0.7564175,0.78370607,0.5933849,0.52572817,0.16566887,0.23553413,0.6915194,0.26698905,3.0,1.0,0.44495326,0.44758463,0.44546175,cluster1_pred,2.0,2
0.44637254,0.049241482999999996,0.04748881,0.04833271,0.04823471,0.06464872,0.018456915,0.42766345,0.47083366,0.5884339,0.5863885,0.61176455,0.6121983,0.61670095,0.62867486,0.6118623000000001,0.6057811,0.036904,0.039157715,0.60566485,0.60160977,0.6388853,0.46084657,0.7451764,0.6835897,0.7223324999999999,0.042493973,3.0,0.0,0.4364959,0.47325394,0.4207756,cluster1_pred,2.0,2
0.44874182,0.18763988,0.18635009,0.18571249,0.18920934,0.13782576,0.0043168077000000004,0.46095106,0.504386,0.59932667,0.62526476,0.6224424,0.625087,0.63096863,0.62152797,0.6152429,0.6097194,0.14793321,0.15135558,0.6822976,0.66264445,0.6970960999999999,0.62116987,0.8160088000000001,0.7340613,0.55084616,0.22116692,3.0,0.0,0.4514273,0.47523367,0.3912616,cluster1_pred,2.0,2
0.50599676,0.34444168,0.359274,0.34844512,0.35604173,0.38943046,0.020725433,0.4753335,0.5136518,0.7565991,0.6926878000000001,0.65948224,0.656163,0.6592245,0.6252078000000001,0.6792738,0.68774265,0.31095690000000004,0.3056744,0.7142108,0.69903535,0.69302976,0.6355111,0.8739180000000001,0.61969006,0.9050923000000001,0.39289752,1.0,0.0,0.45981765,0.45737776,0.40382013,cluster0_pred,3.0,2
0.43308386,0.18838598,0.18585281,0.18546273,0.18635008,0.23200783,0.021901063999999998,0.42922187,0.4057948,0.5247693,0.5543905,0.58089954,0.5644144,0.5543996999999999,0.53517514,0.5342238,0.5386215999999999,0.20385095,0.20667753,0.58034295,0.60425913,0.5607897,0.2531776,0.38417876,0.4792159000000001,0.93236315,0.11392077,3.0,2.0,0.43770364,0.47138938,0.44214293,cluster1_pred,2.0,1
0.44292700000000007,0.35376772,0.35305820000000004,0.35331586,0.35604173,0.30872859999999996,0.009114435,0.44815996,0.4657714,0.5573269000000001,0.5543069,0.57699066,0.57387435,0.57488704,0.5782793,0.5839072,0.58899117,0.34822136,0.37080799999999997,0.6908793000000001,0.7175831,0.5795225,0.5837945,0.19936603,0.23294762,0.5983143,0.12449307,3.0,2.0,0.44487268,0.49607825,0.43603474,cluster1_pred,2.0,1
0.45900708,0.21250932,0.24440576,0.21593605,0.24589756,0.23894690000000002,0.017890712,0.6258236,0.6793635,0.7069238,0.68143284,0.68206114,0.76991415,0.7625503,0.7968066999999999,0.8119597,0.8639418,0.1680834,0.16890173,0.78006786,0.7539439,0.73671883,0.70674765,0.66983426,0.6160281999999999,0.77194303,0.46848205,3.0,0.0,0.46006137,0.475563,0.42772192,cluster1_pred,2.0,1
0.44525249999999994,0.19161898,0.18983093,0.19345573,0.19256589,0.14126429,0.0073813717,0.44467170000000006,0.46107528,0.5768713000000001,0.57144904,0.6092006999999999,0.57488537,0.57488704,0.56167185,0.54303503,0.55378544,0.21061452,0.20342922,0.5595738,0.5763589,0.5743145000000001,0.25786063,0.48110506,0.3784608,0.5175327000000001,0.097109765,3.0,2.0,0.44544274,0.49600166,0.44387984,cluster1_pred,2.0,2
0.43936549999999996,0.62795323,0.62966186,0.6313226,0.62754846,0.59730464,0.0073258923,0.42521784,0.37795353,0.5023499,0.51072276,0.5671353,0.5309587,0.50587946,0.48007223,0.4972827,0.49751797,0.6502239000000001,0.6664035,0.69709986,0.76043904,0.48647407,0.43131196,0.15917476,0.24162067,0.6838998000000001,0.27673233,3.0,1.0,0.44908404,0.45549455,0.45262012,cluster1_pred,2.0,1
0.38080645,0.3034071,0.30084535,0.2904958,0.2988563,0.31432942,0.04832764,0.40769744,0.39534104,0.47280616,0.49756148,0.49739197,0.48969397,0.49431717,0.48053497,0.50858974,0.5495171,0.32050133,0.33517846,0.6293727,0.67154837,0.5251851,0.3510702,0.13170148,0.20470606,0.86502904,0.3049086,2.0,2.0,0.4516657,0.47275916,0.45369792,cluster1_pred,2.0,1
0.45509679999999997,0.18465555,0.19368473,0.17771949,0.19331178,0.17857222,0.017584255,0.50266635,0.72322625,0.71810937,0.6912621999999999,0.7654924,0.7412156,0.7039808000000001,0.611837,0.660027,0.6876722,0.12250176,0.13166028,0.69627345,0.6564659,0.75236577,0.61651206,0.704271,0.5151545999999999,0.75517005,0.5198322,3.0,0.0,0.47405812,0.4751611,0.39851543,cluster1_pred,2.0,2
0.39372426,0.16936085,0.17702638,0.167978,0.17317253,0.14828247,0.019990993999999998,0.51154006,0.57628626,0.66405463,0.7256899,0.7063728,0.73764706,0.8367813000000001,0.7934682,0.6910053,0.5888251,0.19683881,0.09241667,0.39260805,0.32577333,0.75086826,0.43093717,0.80041367,0.8159299,0.7080631,0.62530714,2.0,0.0,0.42798603,0.44620287,0.2968428,cluster1_pred,2.0,3
0.46379852,0.9723949000000001,0.9724018,0.9752716999999999,0.9738935999999999,0.97250795,0.008308666,0.44646463,0.42127633,0.5424661,0.53970385,0.52979267,0.5305011,0.5496169,0.57263666,0.59208393,0.6152534000000001,0.9591376,0.9993595999999999,0.84732515,0.8927567,0.56790245,0.65873545,0.15078457,0.21748063,0.7561188,0.3013297,3.0,1.0,0.42845082,0.42545143,0.47371137,cluster2_pred,,3
0.47226579999999996,0.31273314,0.31141222,0.30448356,0.31439582,0.34564728,0.024315727999999998,0.43432382,0.35637552,0.44561914,0.43869004,0.49239835,0.502815,0.5422035,0.50422746,0.48632887,0.38567337,0.3873118,0.3532055,0.45752826,0.5047555,0.47185075,0.19504187,0.15011719,0.25038657,0.92033434,0.31186265,3.0,2.0,0.44713384,0.45100373,0.46633214,cluster2_pred,,2
0.38276535,0.0991047,0.099701636,0.09916324,0.09908006,0.120724335,0.036336213,0.47641858,0.45831686,0.5252611999999999,0.5755045999999999,0.6021678,0.5986946999999999,0.6030595999999999,0.57938313,0.58226925,0.56092954,0.10853043,0.110149585,0.52923894,0.5190501000000001,0.63678426,0.34699294,0.47050879999999995,0.59819204,0.80392253,0.15509820000000002,2.0,2.0,0.45157588,0.4730874,0.43149593,cluster1_pred,2.0,3
0.48308766,0.56963444,0.5805569,0.5477706999999999,0.5489805999999999,0.53891903,0.012356003999999999,0.28430098,0.34323213,0.50704026,0.6614260999999999,0.70577115,0.64557475,0.6099932,0.5573169,0.4740985,0.43038955,0.6506670999999999,0.48972678,0.1481632,0.045066644,0.7870823,0.27660500000000005,0.78581214,0.8265697,0.7531169,0.7873949,1.0,1.0,0.3603871,0.4590103,0.28759533,cluster1_pred,2.0,2
0.44641563,0.24919175,0.26081553,0.24765831,0.25658876,0.20684911,0.050174302999999996,0.48478892,0.2758299,0.40097243,0.39804012,0.43991926,0.42899698,0.43245184,0.433309,0.45515886,0.47481853,0.30225387,0.32194337,0.6205988,0.70268923,0.42015990000000003,0.24732183,0.12812743,0.11965997,0.5661397,0.22956705,3.0,2.0,0.44197536,0.48444656,0.45966536,cluster1_pred,2.0,2
0.43040407,0.22817706,0.2262556,0.22417884,0.227996,0.25430772,0.013642592,0.43397066,0.43911695,0.59448165,0.6051274,0.642183,0.6469126000000001,0.6469166999999999,0.6062661,0.6129128,0.5912497,0.23897922,0.20765287,0.59018457,0.59986085,0.59983224,0.44016844,0.7413566999999999,0.7827467,0.9408527,0.16111238,3.0,0.0,0.45128128,0.45204562,0.41019318,cluster1_pred,2.0,3
0.40374768,0.18092515,0.17839383,0.17734481,0.17702636,0.20533379999999998,0.018487774,0.42979032,0.43133718,0.5769531,0.6343439999999999,0.67449623,0.631444,0.6084368,0.6006116,0.6031673000000001,0.6243871,0.20389688,0.1879095,0.48119667,0.46970627,0.6288744000000001,0.32951987,0.75537163,0.71475255,0.9500164000000001,0.23999545,2.0,0.0,0.46160355,0.4494747,0.3975826,cluster0_pred,3.0,3
0.46361625,0.20952499,0.22675288,0.20794305,0.21680754,0.2651946,0.022717400000000002,0.44088277,0.45452613,0.55813086,0.5782254,0.59072715,0.6087975,0.609036,0.60360676,0.61721414,0.60398966,0.20214870000000001,0.20447148,0.65609974,0.6581133000000001,0.63505864,0.5588137,0.5162997,0.5517388000000001,0.9500293,0.16998027,3.0,0.0,0.44593647,0.46347708,0.44650248,cluster1_pred,2.0,1
0.40264022,0.16351654,0.1643461,0.15049331,0.16322725,0.13712308,0.011988783999999999,0.39372426,0.47901693,0.62143266,0.63444537,0.70808184,0.6530139,0.7008968000000001,0.81606704,0.7631753000000001,0.6721710999999999,0.19146837,0.09776795,0.41151986,0.34133795,0.76393837,0.40516007,0.7338163000000001,0.7885924,0.71068144,0.6177364000000001,2.0,0.0,0.42680752,0.43969613,0.28389904,cluster1_pred,2.0,1
0.40385190000000004,0.0701318,0.06700646,0.06956413,0.06986573,0.09705999,0.021517992000000003,0.4259626,0.43725067,0.5750528,0.5805577,0.6086236,0.5924857,0.64140314,0.6296871,0.67363864,0.6800399,0.052825067,0.054243705999999996,0.6209706,0.60669565,0.66883916,0.50724053,0.58175886,0.73021126,0.744029,0.07461697,2.0,0.0,0.43465757,0.47296578,0.41805342,cluster1_pred,2.0,3
0.47955600000000004,0.32031834,0.31800100000000003,0.3214687,0.3221034,0.27396226,0.0064989887,0.4510675,0.47203356,0.5722973000000001,0.54952323,0.58629584,0.5863406999999999,0.60515845,0.6007688,0.59344447,0.6074165,0.30592313,0.31208426,0.70199484,0.7195971,0.60560864,0.6459309,0.32168302,0.41158897,0.60253346,0.11499629,3.0,2.0,0.44264,0.48903665,0.43665424,cluster1_pred,2.0,3
0.46560150000000006,0.23389705,0.23085532,0.22942425,0.23048234,0.18010588,0.007505539300000001,0.43304417,0.45324838,0.5681390000000001,0.5762326,0.5948854,0.56073475,0.5752059,0.5751655,0.5822046999999999,0.58504295,0.22404005,0.25160256,0.6431207,0.6557573,0.60461074,0.48395429999999995,0.48210379999999997,0.410894,0.55436856,0.12119229,3.0,2.0,0.44565043,0.48546207,0.44288245,cluster1_pred,2.0,1
0.52086407,0.07162397,0.07011437,0.063819155,0.06253108,0.069614425,0.02103189,0.36927298,0.35645407,0.44068056,0.46231530000000004,0.48735878,0.45427606,0.4595157,0.46366775,0.47486448,0.49625164,0.08976798,0.10330037,0.52569413,0.5410925,0.56994593,0.17318301,0.060907435,0.06749012,0.7234441999999999,0.15082420000000002,1.0,2.0,0.431275,0.49960983,0.44505903,cluster1_pred,2.0,2
0.44234540000000006,0.42265606,0.42317256,0.41651058,0.41857284,0.37278548,0.009547701,0.43478918,0.51638865,0.6217816999999999,0.6292524,0.6610946,0.6395749,0.67749137,0.71771365,0.7181059000000001,0.72849876,0.3727552,0.38601009999999997,0.7494291000000001,0.7262399,0.7219624,0.8404728000000001,0.7401269,0.8546226999999998,0.6216801,0.18226303,3.0,0.0,0.448595,0.4644364,0.4048923,cluster1_pred,2.0,3
0.42025253,0.25976124,0.26131278,0.26189584,0.26392344,0.21436273,0.0109452475,0.47723059999999995,0.51743144,0.58685124,0.5977588,0.6457052,0.62980396,0.63447386,0.6239498,0.6292078000000001,0.63011926,0.20627894,0.24972184,0.8249434999999999,0.8521521000000001,0.60966265,0.79123086,0.7114933000000001,0.7203974,0.59555507,0.20054878,3.0,0.0,0.43662682,0.48206702,0.43582058,cluster1_pred,2.0,1
0.42234945,0.1753295,0.18150173,0.17859372,0.18324217,0.21348277,0.031517453,0.49303636,0.57157713,0.6739426,0.65390986,0.6526044,0.6340274,0.63082075,0.631412,0.5951215999999999,0.6022015000000001,0.21123813,0.19399582,0.46373934,0.46622520000000006,0.5887258000000001,0.3602442,0.60994524,0.39114836,0.9593678,0.25610197,3.0,0.0,0.45852336,0.46375868,0.451482,cluster1_pred,2.0,1
0.43570584,0.97550356,0.97799605,0.9761459000000001,0.98023367,0.9791846,0.00423491,0.46559078,0.47491908,0.6531836,0.65239865,0.61404294,0.6067004,0.6059588,0.56587845,0.5756276,0.5787239000000001,0.9876488000000001,0.98083824,0.7714920999999999,0.83339363,0.5076301,0.63193756,0.86862904,0.65829194,0.7592211,0.323781,3.0,1.0,0.39530575,0.45230862,0.44089642,cluster1_pred,2.0,2
0.34670287,0.19833374,0.19704127,0.18983388,0.19753854,0.20884432,0.030661487999999997,0.3921883,0.38622078,0.52893054,0.4870630999999999,0.40459946,0.42479998,0.47513098,0.48076978,0.48724076,0.40516078,0.28012475,0.25484937,0.39638516,0.44003734,0.46673329999999996,0.17767926,0.12051210000000001,0.06964871,0.90753484,0.29236087,2.0,2.0,0.44676375,0.45389536,0.46763945,cluster2_pred,,2
0.44644603,0.6713504,0.6757831999999999,0.6714125,0.6764048,0.65087837,0.006052513000000001,0.46951842,0.5502126,0.68829113,0.742503,0.7596354999999999,0.73302346,0.71925884,0.69730335,0.6345848000000001,0.66022676,0.6639775,0.6132019000000001,0.65719616,0.64067894,0.6831193,0.6654535,0.9754363000000001,0.9005706,0.6970341999999999,0.30881673,3.0,1.0,0.40922296,0.4609965,0.37930965,cluster1_pred,2.0,3
0.4702528,0.54812235,0.54922926,0.54564756,0.55320734,0.51070476,0.007833131,0.47723043,0.52630264,0.65588033,0.66313624,0.66109484,0.6678763000000001,0.5815788000000001,0.5305328,0.5696023,0.68835753,0.540429,0.5725553000000001,0.7181380999999999,0.74635464,0.58201325,0.61885995,0.8069281999999999,0.5076067,0.6877215999999999,0.28559044,3.0,1.0,0.45666873,0.47059542,0.4224229,cluster1_pred,2.0,3
0.4435088,0.28985327,0.29239184,0.2919945,0.29326203,0.24441715,0.0028188701000000003,0.43478778,0.45429128,0.56065357,0.57304287,0.6181475000000001,0.60554516,0.6131241999999999,0.6146081,0.6074090999999999,0.6350549,0.27733308,0.28710452,0.6789279,0.6842218000000001,0.6319504,0.60577,0.7353374,0.84379107,0.5797091,0.1086585,3.0,0.0,0.4425598,0.4678417,0.40641335,cluster1_pred,2.0,3
0.31866288,0.58791345,0.58602685,0.5793680999999999,0.577449,0.5378991,0.008284889,0.38400024,0.44902065,0.6023502,0.6322238,0.70508844,0.6705104000000001,0.6541343000000001,0.6643821999999999,0.6751724,0.7058469,0.5782440999999999,0.5330043000000001,0.64926994,0.6278555,0.6938937,0.5608526999999999,0.84090155,0.8824378,0.6974676999999999,0.29758520000000005,2.0,1.0,0.42474988,0.44921592,0.3650402,cluster1_pred,2.0,1
0.42759767,0.6090524,0.6184734000000001,0.59972525,0.6111386999999999,0.6057008,0.009996818000000001,0.44162312,0.52547616,0.5410583999999999,0.56807154,0.5480010999999999,0.69377035,0.52540743,0.46830267,0.27430972,0.23748827,0.79091316,0.5685498999999999,0.053426817,0.08666104,0.41317388,0.22617397,0.49692455,0.45423785,0.7530640000000001,0.83479756,3.0,1.0,0.3660153,0.44232258,0.4367054,cluster1_pred,2.0,1
0.45804343,0.19808504,0.19592242,0.19408017,0.19181998,0.14050013,0.004398705399999999,0.41676417,0.43968050000000003,0.54859436,0.5331791,0.56195956,0.54692036,0.5465273,0.52119076,0.5103369000000001,0.50870854,0.21559478,0.22246125,0.56789464,0.5981536999999999,0.54150754,0.18541192,0.075105116,0.07785318,0.5176362,0.113888554,3.0,2.0,0.4333683,0.51890564,0.43225512,cluster1_pred,2.0,1
0.49951962,0.17035563,0.17217802,0.16985139,0.1720537,0.21254888,0.023480897999999997,0.44467170000000006,0.49939427,0.5993588000000001,0.63384044,0.614186,0.5778444,0.5713348,0.53057784,0.5342237,0.5429930000000001,0.18906578,0.15794289,0.53918093,0.55242884,0.5786566999999999,0.29538137,0.62696093,0.42288163,0.91191983,0.12250671,1.0,2.0,0.45173097,0.47182772,0.44641778,cluster1_pred,2.0,2
0.43723065,0.16102959,0.16409747,0.16173348,0.16335157,0.18740617,0.024725217,0.44095162,0.5248307,0.5902576,0.59097975,0.60934335,0.5588529000000001,0.5291397,0.55662376,0.55986416,0.54905486,0.17049788,0.17926481,0.5207984999999999,0.51081926,0.6342639,0.36055234,0.47949997,0.29860017,0.9426791999999999,0.23126496,3.0,2.0,0.46102834,0.4661842,0.4497617,cluster1_pred,2.0,1
0.45157010000000003,0.33511564,0.33503234,0.3297115,0.3286922,0.36302432,0.008062973000000001,0.39638197,0.42757833,0.5294981,0.53565544,0.5688350999999999,0.5770430000000001,0.5485711,0.5334436,0.52492076,0.5620361999999999,0.32611224,0.3529485,0.6114135,0.60209215,0.6538188,0.40731233,0.23759073,0.26258582,0.95574045,0.21263069,3.0,2.0,0.45190686,0.47306237,0.4310594,cluster1_pred,2.0,2
0.44699743,0.22867446,0.22749877,0.22942425,0.22737443,0.17692201,0.008979700000000002,0.4528109,0.46629325,0.57021797,0.5702524999999999,0.5852221,0.5806126,0.5739310000000001,0.5602876999999999,0.57028306,0.5833975,0.22750720000000002,0.24788927,0.6278558000000001,0.6483492,0.5807625,0.44433126,0.2653585,0.18525854,0.54055214,0.10585032400000001,3.0,2.0,0.44004607,0.50480497,0.43652952,cluster1_pred,2.0,3
0.4547556,0.32578959999999996,0.32695174,0.32221809999999995,0.3286922,0.34966958,0.011407575,0.48500758,0.540148,0.62186056,0.64413965,0.6529866999999999,0.66461384,0.647958,0.59175164,0.57042134,0.56359357,0.31689906,0.34085062,0.6633055,0.6852377,0.5853651,0.57620245,0.6954121999999999,0.62798244,0.8600585,0.29647818,3.0,0.0,0.45589784,0.46412176,0.42711723,cluster1_pred,2.0,3
0.42548528,0.23066401,0.23085532,0.23229675,0.23359025,0.18328948,0.012017845,0.44990426,0.47672936,0.5893465,0.5997519,0.63317895,0.6028498999999999,0.61822295,0.6056123999999999,0.6193301999999999,0.6047842,0.21920839,0.21685661,0.6356488,0.6329963000000001,0.6422991,0.56243545,0.37431508,0.30850196,0.55998486,0.14390245,3.0,2.0,0.44779524,0.49376854,0.44156286,cluster1_pred,2.0,2
0.47199768,0.35115644,0.3515664,0.35518923,0.35542017,0.30809182,0.0050697397,0.4493225,0.4553353,0.5760395,0.6121097,0.6392631999999999,0.6126209,0.6089825,0.61564595,0.65305,0.63933176,0.34143564,0.33862674,0.69798625,0.71091175,0.6167331,0.6649387,0.691485,0.7142295999999999,0.60705304,0.11544687,3.0,0.0,0.4435379,0.46997267,0.42652488,cluster1_pred,2.0,1
0.45920604,0.5345685,0.5340626,0.5357812,0.53779215,0.4949134,0.007331176,0.45048642,0.47098985,0.6014056999999999,0.6328394,0.6636001,0.64698684,0.6351113,0.6682366999999999,0.678255,0.6955958999999999,0.5001697,0.5173907999999999,0.7923554,0.8001404000000001,0.6521265,0.8606964,0.8460571,0.89506316,0.68033904,0.15354410000000002,3.0,0.0,0.44768658,0.44995606,0.41140598,cluster1_pred,2.0,3
0.432766,0.06801791,0.07123321,0.070813045,0.07434112,0.103765756,0.025686856,0.4837906,0.49525779999999997,0.5926916,0.6032979,0.6855747,0.6585228,0.6931379,0.6860130999999999,0.68388397,0.6867151,0.054923415,0.04938736,0.6106571999999999,0.5933661,0.674201,0.5727441,0.8469823000000001,0.8657594999999999,0.75186676,0.08019383,3.0,0.0,0.44409692,0.46768174,0.39536464,cluster1_pred,2.0,1
0.40823796,0.32056704,0.3448533,0.3137255,0.3484585,0.32962692,0.02053522,0.60337424,0.59220034,0.60430366,0.5481293,0.5560114,0.49045262,0.47531720000000005,0.3508476,0.267985,0.28235429999999995,0.48159474,0.39894515,0.19298331,0.26465429999999995,0.34674970000000005,0.22572303,0.2813741,0.12237261,0.7260002,0.67893726,3.0,2.0,0.43922016,0.41673586,0.4775767,cluster2_pred,,2
0.4992478,0.21760754,0.22687717,0.21918320000000002,0.22613128,0.26023263,0.033786815,0.49197060000000004,0.5430996,0.6704593000000001,0.6480758000000001,0.65856504,0.66283184,0.68398565,0.73677295,0.7436037,0.7559316999999999,0.18948729999999997,0.1809723,0.63720703,0.5938709,0.74761546,0.6426819,0.7960602,0.7284805,0.97581995,0.21497948,1.0,0.0,0.4608582,0.45511556,0.4166082,cluster0_pred,3.0,3
0.42341137,0.05247451,0.052461468,0.05357812,0.055320732000000004,0.075266205,0.014028303999999998,0.45997915,0.46396450000000006,0.5409915,0.58405614,0.60967064,0.59544265,0.576152,0.5492213,0.5495876999999999,0.5600611999999999,0.05182696,0.072548985,0.5973437,0.6105202,0.59248173,0.38243693,0.32001734,0.4339674,0.73152333,0.071571894,3.0,2.0,0.4224853,0.497474,0.44720137,cluster1_pred,2.0,1
0.48652887,0.59562296,0.6047986,0.5967279000000001,0.60877675,0.5778061,0.005542633000000001,0.5437124,0.53827405,0.59975076,0.57539606,0.6193914,0.56512153,0.55983764,0.5821625,0.58362377,0.5799232,0.6028093000000001,0.61903524,0.68414974,0.716306,0.5638789000000001,0.56821686,0.3799552,0.21505299,0.69599724,0.29629815,1.0,1.0,0.45339307,0.46443695,0.4598814,cluster1_pred,2.0,3
0.4422906,0.110295944,0.10914968,0.1075309,0.10740925,0.13237178,0.027382932999999998,0.41609958,0.44478270000000003,0.5678350000000001,0.59019727,0.630992,0.63548917,0.6430776,0.6488123,0.6445732,0.6300986,0.09260828,0.09095006,0.6490491,0.64841795,0.64022774,0.5635911,0.7766615,0.8520620999999999,0.7964734,0.08847875,3.0,0.0,0.44544104,0.46665764,0.40116957,cluster1_pred,2.0,1
0.44699812,0.52996767,0.5288414,0.52591485,0.52672803,0.48357913,0.013346704,0.4086245,0.47568488,0.4716643,0.44029564,0.52044415,0.6146421999999999,0.6115311,0.60526574,0.5808415,0.6090615,0.5353325,0.5805415,0.7222485,0.7663978,0.54187614,0.4991647,0.1300129,0.30711934,0.67809325,0.30829093,3.0,1.0,0.45937157,0.46450886,0.43887427,cluster1_pred,2.0,3
0.3717537,0.8885850000000001,0.88587767,0.7971775,0.80034804,0.7897521,0.04738978,0.0,0.02271596,0.15474609,0.15121631,0.23105396,0.23090495,0.23842967,0.16147605,0.18872422,0.24150279,0.9864371999999999,0.9255518,0.44813997,0.57523906,0.26360503,0.07682557,0.19165286,0.27452812,0.7367994000000001,0.61006796,2.0,1.0,0.45511857,0.37207028,0.41622785,cluster0_pred,3.0,3
0.4959604,0.5647849,0.5722278000000001,0.56775326,0.5662604999999999,0.5336441,0.005376196,0.4364188,0.43932986,0.5660185000000001,0.62107134,0.63281804,0.6102175999999999,0.60991794,0.6053173000000001,0.5815516,0.5902658000000001,0.58135515,0.5755874,0.58698636,0.5810548000000001,0.63934535,0.44133228,0.7471709,0.78749365,0.6989818,0.2521083,1.0,1.0,0.41749066,0.44832975,0.39383283,cluster1_pred,2.0,3
0.5600225000000001,0.8412086,0.8444804,0.8292744000000001,0.84087515,0.8324302,0.012636041,0.43750020000000006,0.5060337,0.81434304,0.919998,0.94295186,0.74420416,0.6950569000000001,0.42787838,0.40511107,0.37578252,0.9429339,0.6966992,0.28953096,0.30451223,0.51563436,0.39598826,0.8290379999999999,0.669587,0.7383735,0.96544755,1.0,1.0,0.3487278,0.5178514,0.34756035,cluster1_pred,2.0,2
0.43510807,0.9779905000000001,0.9747638000000001,0.9610341999999998,0.95773244,0.9554893,0.009053673,0.34784713,0.39499334,0.5146813,0.49175748,0.5364151,0.51145244,0.47689763,0.4702019,0.49264506,0.5455770999999999,0.9695136999999999,0.9956728000000001,0.8100574,0.87768525,0.50190264,0.5328447,0.27128008,0.20934899999999998,0.7542804,0.3172665,3.0,1.0,0.42603043,0.4401272,0.46961665,cluster2_pred,,1
0.4510675,0.3189505,0.31787667,0.3219683,0.32073593,0.27256134,0.008889876,0.446416,0.46316218,0.53445566,0.55071914,0.60025316,0.6031868,0.60707027,0.5869289000000001,0.59037876,0.6245255999999999,0.3047975,0.3093103,0.7044639,0.7193764,0.6131265,0.63278425,0.35791975,0.5836863,0.59970886,0.12380468,3.0,0.0,0.44012073,0.48010463,0.431415,cluster1_pred,2.0,3
0.5673483,0.13765234,0.13674788,0.13463219,0.13823968,0.08561260000000001,0.008971774,0.44874200000000003,0.52630216,0.62427676,0.6236704000000001,0.56768584,0.5641039000000001,0.49968645,0.47898012,0.44732487,0.46330273,0.17966565,0.15680787,0.45239094,0.48441812,0.5098571,0.20765027,0.5545143,0.36669,0.528586,0.19402263,1.0,2.0,0.452811,0.48071954,0.45939535,cluster1_pred,2.0,1
0.41676408,0.31609052,0.31290406,0.31422505,0.3127797,0.26441103,0.0039707236,0.43595028,0.45272607,0.5535846,0.5933734,0.63818955,0.6200331,0.6300127,0.6191061,0.6288673,0.6245259,0.29961783,0.29186934,0.7162491,0.7407883000000001,0.5910566999999999,0.6952801,0.58901775,0.6884416999999999,0.61020297,0.1077222,3.0,0.0,0.43838942,0.47613558,0.43308687,cluster1_pred,2.0,3
0.4929273,0.5493658,0.5481104,0.5262895000000001,0.52411735,0.48090503,0.0105146235,0.29641408,0.27322164,0.4596059,0.6001512,0.62566376,0.6099253000000001,0.58285326,0.5858915,0.5515498000000001,0.563656,0.53150547,0.51743424,0.745679,0.7759545,0.5831611999999999,0.49201772,0.52231383,0.638573,0.6765303,0.32169214,1.0,1.0,0.45482802,0.44620904,0.39123964,cluster0_pred,3.0,1
0.33878842,0.26498383,0.2742417,0.2650181,0.27026355,0.27357805,0.017082299999999998,0.49827492,0.43918818,0.51501244,0.53784215,0.58872205,0.5652590999999999,0.5846431,0.6226255999999999,0.6298784000000001,0.6325914,0.25784436,0.24648005,0.7445655,0.78902596,0.5463071999999999,0.56132406,0.36451918,0.54086655,0.78158337,0.4541013,2.0,0.0,0.44863704,0.4611756,0.44596225,cluster1_pred,2.0,3
0.42763683,0.40350658,0.40029836,0.38079179999999996,0.3871208,0.42674285,0.025781962999999998,0.39697447,0.49224746,0.63232553,0.65297633,0.7119116999999999,0.7055209,0.71150666,0.8340354,0.7770728,0.73787177,0.32380205,0.33749387,0.799669,0.76685405,0.75857663,0.70176816,0.85305905,0.9168921999999998,0.9214004000000001,0.39098045,3.0,0.0,0.4493664,0.45752656,0.36696061,cluster1_pred,2.0,1
0.41792715,0.35016164,0.34696668,0.34120142,0.34099948,0.29331929999999995,0.015991211,0.4051357,0.4057625,0.50285244,0.50886166,0.5215179,0.48593724,0.49490666,0.4848617,0.47116685,0.49456033,0.38077626,0.37788093,0.5936340999999999,0.650932,0.47779268,0.19827564,0.054076117,0.041687246000000004,0.5926826,0.15138437,3.0,2.0,0.44059494,0.5030082,0.43744615,cluster1_pred,2.0,2
0.45194834,0.18216862,0.17901543,0.17547145,0.17702636,0.19727403,0.030312762000000004,0.40101084,0.41574502,0.5559589,0.55826795,0.6048136,0.58903617,0.60781896,0.5786718000000001,0.55858356,0.50646985,0.20943321,0.19915257,0.5048946,0.51792586,0.57117426,0.24097475,0.5317837,0.6298401,0.92968786,0.22041126,3.0,0.0,0.45649204,0.45309907,0.42589247,cluster0_pred,3.0,3
0.41924646,0.91258395,0.91471905,0.89821404,0.9027847,0.90624166,0.0077670840000000005,0.4470817,0.4901429,0.4974299,0.44354284,0.5143273,0.49091768,0.46112993,0.41841877,0.46087438,0.43538913,0.9774406999999999,0.9460030999999999,0.61465675,0.71667284,0.36736447,0.36180896,0.20302713,0.24010134,0.76530993,0.53533226,3.0,1.0,0.4075243,0.43451577,0.4877519,cluster2_pred,,2
0.39308327,0.113777675,0.1108901,0.11177719,0.11312779,0.14036855,0.02613333,0.44943357,0.4640154,0.5502378000000001,0.5994482,0.6324576,0.6037539000000001,0.6104541,0.6058323,0.6324844000000001,0.67097133,0.0762776,0.09361916,0.674538,0.65277946,0.70070755,0.6176712,0.69864786,0.75106233,0.814746,0.12897661,2.0,0.0,0.44434232,0.4697806,0.41665217,cluster1_pred,2.0,1
0.44942079999999995,0.7140015000000001,0.71643466,0.7125016,0.7117106,0.69045496,0.012710013000000001,0.46366367,0.42956847,0.54562145,0.5269486,0.54055905,0.52746874,0.53101844,0.49995059999999997,0.5446223000000001,0.53816915,0.70534515,0.7391095999999999,0.74416023,0.7802606,0.56777865,0.54940313,0.22816934,0.1975264,0.6891645000000001,0.26430288,3.0,1.0,0.44867882,0.45004448,0.46196297,cluster2_pred,,1
0.45804387,0.35115644,0.35367978,0.35456479999999996,0.35790652,0.31063884,0.0043802126,0.49525377,0.5596982,0.62552416,0.60533255,0.6152847,0.58128685,0.5761611999999999,0.54091215,0.52157676,0.54161114,0.37852985,0.35969709999999994,0.57724917,0.6174722,0.5179977,0.43596769999999996,0.530554,0.25540736,0.59750575,0.16945866,3.0,2.0,0.45456687,0.48248717,0.4506787,cluster1_pred,2.0,2
0.47543395,0.6507088000000001,0.66011935,0.65405273,0.6591248000000001,0.6328666000000001,0.005159563,0.49732417,0.49711618,0.6057818,0.55672747,0.5768287,0.5814941,0.5671953000000001,0.5902793000000001,0.57497454,0.55309355,0.69440866,0.66589195,0.5875343000000001,0.624514,0.5287765,0.4315645,0.31843296,0.25926350000000004,0.67923903,0.27414444,3.0,1.0,0.42576146,0.4654699,0.46701285,cluster2_pred,,2
0.46252775,0.09450385,0.094169565,0.09641563,0.09808553,0.15429586,0.046613652,0.45984948,0.48075393,0.5817416999999999,0.58434695,0.61309856,0.584897,0.5828876999999999,0.56432927,0.5695418000000001,0.59731036,0.08951075,0.107125334,0.6727669,0.7099445,0.54825586,0.6520609,0.37756613,0.20007323,0.24316995,0.002263946,3.0,2.0,0.42371818,0.51579005,0.44566634,cluster1_pred,2.0,3
0.44289136,0.718478,0.71631026,0.7182466,0.7200397,0.69916534,0.009780185,0.4767222,0.5142682,0.6407118,0.62014157,0.619475,0.6089844,0.6256781,0.55535644,0.526628,0.54960275,0.7276861,0.73484445,0.6517677,0.67467767,0.5801364999999999,0.54201066,0.7717195,0.5092884,0.6930145999999999,0.27613530000000003,3.0,1.0,0.42154518,0.45813352,0.43505582,cluster1_pred,2.0,1
0.46566525,0.23004226,0.23060668,0.22917448,0.22986077,0.24869637,0.035501387,0.4411725,0.4898499,0.64905024,0.6837818,0.7405864000000001,0.7512445,0.68798584,0.65358925,0.63482285,0.6645512,0.24495597,0.18192112,0.46599382,0.4202918,0.71356386,0.42843792,0.88970387,0.88536894,0.9397929,0.27659166,3.0,0.0,0.45341155,0.45661482,0.3528146,cluster1_pred,2.0,2
0.40270957,0.022755532000000002,0.020636497,0.023104778,0.021879664,0.034418332999999995,0.024776892999999998,0.44735014,0.48155513,0.61303115,0.64617455,0.64277565,0.6140257,0.6100398,0.61030847,0.5604026,0.5854275999999999,0.028073973999999998,0.027712023,0.55679965,0.56879807,0.58601207,0.36322874,0.83734214,0.63364935,0.699072,0.07546961,2.0,0.0,0.44006515,0.47163206,0.42243356,cluster1_pred,2.0,3
0.58645004,0.7430986999999999,0.74291396,0.73273385,0.74701643,0.73064387,0.0065544676,0.46790355,0.47595647,0.5502239000000001,0.54309905,0.5619499,0.57902503,0.6238574,0.6123546999999999,0.61088824,0.6054050999999999,0.7466619999999999,0.7688911,0.7138769,0.7370954000000001,0.5939074000000001,0.5833133,0.30699122,0.36810967,0.7082286999999999,0.23890623,1.0,1.0,0.4314404,0.4425289,0.45748731,cluster2_pred,,2
0.39373420000000003,0.27978113,0.27846843,0.2776321,0.27710095,0.32558197,0.030579591,0.42284098,0.48432064,0.59499305,0.61564505,0.63392884,0.6438556,0.6500861,0.6523306999999999,0.6668701,0.67768836,0.22442372,0.26608467,0.7893414000000001,0.78853434,0.6735843,0.8085416,0.8310049999999999,0.86047226,0.9935838,0.16832508,2.0,0.0,0.44881523,0.45543846,0.42070645,cluster1_pred,2.0,3
0.39425185,0.30838096,0.31079066,0.30161109999999997,0.31253105,0.33052695,0.019692464,0.4413102,0.47679478,0.62666863,0.6404518,0.7208526999999999,0.6727951,0.69880295,0.65856147,0.62280095,0.61419284,0.3144484,0.26434317,0.6023281,0.6016829,0.6293064,0.51759297,0.86603886,0.81527704,0.8868486999999999,0.39338702,2.0,0.0,0.4510488,0.45427817,0.36370137,cluster1_pred,2.0,3
0.44199315,0.10370553,0.10629041,0.10465842,0.103058174,0.1621182,0.922617,1.0,1.0,1.0,1.0,1.0,0.98638713,0.9684693000000001,1.0,1.0,0.98029494,0.0,0.0065264776,0.6712344,0.6042484,0.8166051999999999,0.91697025,0.9277132,0.9199305,0.30055129999999997,0.20097758,3.0,0.0,0.45100507,0.4502384,0.35774738,cluster0_pred,3.0,3
0.39356735,0.40537181,0.4046494,0.40339705,0.40141720000000003,0.44390658,0.010078716,0.44467170000000006,0.4708433,0.5372928000000001,0.59691346,0.6385108,0.5949591,0.6200128,0.5806041999999999,0.5415576999999999,0.54121107,0.41603097,0.38509086,0.6753075,0.7305149000000001,0.50234056,0.505893,0.54325545,0.6152219,0.9325254000000001,0.26134226,2.0,0.0,0.44741437,0.4575165,0.42747068,cluster1_pred,2.0,2
0.35574898,0.1471027,0.14395823,0.10952917,0.10840378,0.0684407,0.03865313,0.2705315,0.13052794,0.39892897,0.30089784,0.32994732,0.28915578,0.33410224,0.23920149999999998,0.15513359,0.18194892,0.22913973,0.22797473,0.30585653,0.3638415,0.40852740000000004,0.18364137,0.21120402,0.23199624,0.7040112,0.69390726,2.0,2.0,0.4889052,0.39917353,0.31757832,cluster0_pred,3.0,3
