Label,col-0,col-1,col-2,col-3,col-4,col-5,col-6,col-7,col-8,col-9,col-10,col-11,col-12,col-13,col-14,col-15,col-16,col-17,col-18,col-19,col-20,col-21,col-22,col-23,col-24,col-25,direction,Cluster,cluster0_pred,cluster1_pred,cluster2_pred,selected-cluster,prediction,random-prediction
0.7087213000000001,0.8226573,0.8206969999999999,0.82111627,0.8157501,0.81921387,0.030796226,0.635205,0.529675,0.52097464,0.52965456,0.48740685,0.588009,0.554764,0.6093864,0.6256122,0.6271078,0.7935138,0.793999,0.6817982,0.58852816,0.8011879,0.60427094,0.27605757,0.55523074,0.9329415000000001,0.53563625,1.0,0.0,0.6827153,0.6541372,0.67769,cluster0_pred,3.0,2
0.64150983,0.72621274,0.72622544,0.7311429,0.7244943,0.7001425,0.040610623,0.6190547,0.64135736,0.6940794,0.6929415,0.60864466,0.6165271,0.5560231,0.5353883,0.5653965,0.57423276,0.7251118000000001,0.7946312,0.6546059000000001,0.64525,0.59983784,0.6304944,0.87660754,0.71933204,0.84694606,0.53581476,3.0,0.0,0.6479891,0.6686038,0.6438342,cluster1_pred,2.0,1
0.6367982,0.7570175,0.7642069,0.76496744,0.76080346,0.7400335,0.025232006,0.66059417,0.6614073,0.73113734,0.7470333,0.6899608,0.74174017,0.6144661,0.6574528000000001,0.7341075,0.69663507,0.73515594,0.70788646,0.65900445,0.5755205,0.77401316,0.76449275,0.89468956,0.93533224,0.8518428,0.32977846,3.0,0.0,0.6304145,0.67077106,0.67165154,cluster2_pred,,3
0.6208899,0.034115467000000003,0.03282401,0.03179511,0.025203986,0.019139206000000002,0.1397177,0.6388585,0.63912624,0.6071673000000001,0.5974574,0.5692515,0.5508314999999999,0.55550706,0.55984217,0.5279413000000001,0.49138406,0.045962736,0.008964765999999999,0.5020835,0.5159579000000001,0.51680773,0.41494393,0.299265,0.45814209999999994,0.103123456,0.17723456,2.0,1.0,0.65929556,0.64436966,0.72437245,cluster2_pred,,1
0.78341603,0.8223693999999999,0.8346749,0.8225659,0.8401815999999999,0.8464671999999999,0.041979257,0.761205,0.5133734000000001,0.58009845,0.6108251,0.5801586999999999,0.60601777,0.58363193,0.68996644,0.7516598000000001,0.7701938,0.80402756,0.8620953000000001,0.7094863,0.6050026999999999,0.8326218000000001,0.6462306999999999,0.48223987,0.69489604,0.96445596,0.66065156,1.0,0.0,0.67213416,0.66011447,0.69270355,cluster2_pred,,2
0.566656,0.77544266,0.7843543000000001,0.7808166999999999,0.7830139,0.75239986,0.05240973,0.6967874,0.65201074,0.7809847,0.8592992,0.7911887,0.83955044,0.7721669,0.7558752,0.7853028000000001,0.7400893,0.74611795,0.6966368000000001,0.73884207,0.6642840999999999,0.76816607,0.8681196,0.92986983,0.9115926999999999,0.8626429,0.43960150000000003,2.0,0.0,0.6226847,0.66795486,0.691366,cluster2_pred,,3
0.49421242,0.8637302,0.8740059000000001,0.8670210999999999,0.8657719000000001,0.8610638,0.13141231,0.7971545999999999,0.7047357,0.791396,0.8190195,0.81658506,0.7906963,0.74301296,0.74681693,0.72054344,0.69677466,0.8148622,0.8094119000000001,0.8047316999999999,0.7526716,0.7279561999999999,0.8667849,0.8305565,0.90593153,0.9069767,0.49136627,2.0,0.0,0.63618046,0.6758991,0.6986353,cluster2_pred,,1
0.63367474,0.31399646,0.30727333,0.29842958,0.29226017,0.26628777,0.10965452,0.56307775,0.58899486,0.6082908,0.60365826,0.5429958,0.5290199999999999,0.5143657,0.53761417,0.553348,0.6031601,0.2927699,0.26766273,0.62942386,0.61059725,0.61724544,0.55683124,0.61269003,0.6843037,0.41025284,0.2890453,3.0,1.0,0.6657914,0.6429578,0.6902517,cluster2_pred,,3
0.6812688,0.061417397,0.05538149,0.056438774000000004,0.05151853,0.05563824,0.05612571,0.6301412,0.62685907,0.6712130999999999,0.67182606,0.59498096,0.49933583,0.46221176,0.4634317,0.47760379999999997,0.45745316,0.0965185,0.07694434,0.28661734,0.26157224,0.5672678000000001,0.27167946,0.5262671,0.3126281,0.16882442,0.2968413,1.0,1.0,0.67650056,0.65475416,0.6832781,cluster2_pred,,1
0.67733145,0.004174459,0.008772351,0.0062817256,0.012843416000000002,0.010306929,0.10940497,0.7079711999999999,0.67891556,0.6661102,0.67695343,0.6178853,0.5783909,0.52986217,0.5468361999999999,0.5097135,0.48095632,0.020512804,0.032200936,0.48138428,0.4797501,0.54917866,0.4946528,0.53012663,0.33501220000000004,0.037529845,0.17326798,1.0,1.0,0.6510862,0.65157086,0.7101038,cluster2_pred,,1
0.6561039000000001,0.23708077,0.23246735,0.23754531,0.23533389999999998,0.21602605,0.0448413,0.6542905999999999,0.5848063,0.66366446,0.6314814999999999,0.56185406,0.55855364,0.5233796,0.55804896,0.5228763,0.48946992,0.24632102,0.26161897,0.5777519,0.5898753000000001,0.5351441,0.52646774,0.68255097,0.56774294,0.35095733,0.22997601,3.0,1.0,0.65735054,0.6527803,0.6692093,cluster2_pred,,1
0.53824496,0.8187227,0.82301056,0.8219377,0.8229927,0.75035596,0.030187943999999998,0.663719,0.7113944000000001,0.7170801,0.77760166,0.7453928000000001,0.6794161999999999,0.69156337,0.63068825,0.59130913,0.56910497,0.82829,0.76818943,0.59733576,0.58028275,0.6070587,0.64354646,0.89667636,0.8471086999999999,0.75948524,0.6368158,2.0,0.0,0.6247941,0.66624147,0.6507986,cluster1_pred,2.0,1
0.6493325,0.6218991999999999,0.61912566,0.6191350999999999,0.6187533000000001,0.55934197,0.036356546000000003,0.67023814,0.5946733000000001,0.4723215,0.55263716,0.49274796,0.393183,0.37327892,0.40246448,0.40218627,0.43349576,0.666574,0.6718755999999999,0.49331707,0.5379708000000001,0.44318083,0.3633755,0.039583597000000005,0.12417449,0.7191359,0.49986625,3.0,2.0,0.6533684,0.64997345,0.6461924,cluster0_pred,3.0,3
0.56071526,0.64924914,0.6500216999999999,0.64561486,0.65395206,0.5998241999999999,0.048475396,0.6762883000000001,0.68005574,0.62433046,0.7266295,0.75688034,0.8567780999999999,0.80144995,0.8559161,0.86904544,0.7274583,0.6497297,0.5729423,0.4619979,0.31488073,0.8857401,0.60396767,0.78907424,0.87229514,0.717947,0.68229896,2.0,0.0,0.62858784,0.63635004,0.70542747,cluster2_pred,,1
0.62515587,0.1329111,0.1298019,0.13404205,0.13244168,0.10883375,0.055977542000000005,0.65831673,0.6575984,0.6244770000000001,0.6140939000000001,0.58846414,0.5625697,0.49852246,0.5448944,0.5403467,0.5083423,0.13811333,0.1256394,0.5736300999999999,0.58119744,0.5450225999999999,0.5534376,0.3663744,0.34645107,0.24839346,0.13467045,2.0,1.0,0.65214366,0.6495448,0.6831005,cluster2_pred,,3
0.6681696999999999,0.13732547,0.13385066,0.14066201,0.13659407,0.11192894,0.076994464,0.6849927,0.6559418,0.6560996,0.6719754,0.640907,0.6288256999999999,0.5853366999999999,0.605192,0.6012187,0.5855052,0.12052319,0.12986772,0.6366149,0.6123582,0.63129705,0.8445894,0.88112813,0.89484406,0.24089153,0.053210624000000005,3.0,1.0,0.6419578,0.6560781,0.69563806,cluster2_pred,,3
0.6299473000000001,0.28664654,0.2797995,0.28204882,0.27608517,0.24875912,0.08339702,0.62994754,0.6361518,0.6314767,0.6142604,0.5589975,0.556665,0.5585775,0.5747352,0.56789094,0.58828264,0.25480384,0.26560396,0.69608885,0.6734836,0.63862866,0.7279068000000001,0.47648382,0.48706645,0.3753783,0.21504158,3.0,1.0,0.648048,0.65147364,0.6907079,cluster2_pred,,3
0.6887270000000001,0.7634470999999999,0.76796645,0.77037936,0.76949453,0.7403272,0.028476175,0.68987745,0.6494743000000001,0.648534,0.6338005,0.5235125,0.55058545,0.49341450000000003,0.61383015,0.6805511,0.6428001999999999,0.7542035,0.71740484,0.73177296,0.715481,0.6305813,0.72200954,0.09843189,0.17989269,0.85448825,0.43105745,1.0,2.0,0.67335266,0.6570776,0.684271,cluster2_pred,,2
0.769339,0.73782456,0.73779345,0.7386809,0.73135054,0.7062651,0.065238245,0.62538713,0.6758597,0.6843194,0.6550745,0.64718616,0.61232686,0.52360135,0.5527021,0.53490406,0.5404869000000001,0.7417752,0.7681376999999999,0.6122571,0.61310494,0.5680061,0.61698794,0.647996,0.53158057,0.8471404,0.38673648,1.0,0.0,0.6464393,0.6641274,0.64690286,cluster1_pred,2.0,2
0.65464836,0.6363898,0.64361113,0.63846344,0.64154315,0.60706246,0.06796771,0.68053323,0.6400644,0.7797804,0.74226785,0.71152514,0.7924833,0.5772347,0.5657015999999999,0.58967996,0.6406208999999999,0.6903661,0.588387,0.17251875,0.045579437,0.7840716,0.42321990000000004,0.83675456,0.73944354,0.7218326999999999,0.7061162,3.0,0.0,0.67391783,0.64572376,0.6825167,cluster2_pred,,1
0.56873155,0.75720936,0.7554345,0.75250065,0.7460287,0.7421693,0.00999766,0.54690355,0.5600603,0.53251195,0.52812535,0.45251065,0.51599234,0.45980567,0.4491517,0.47276759999999995,0.46128969999999997,0.7591817,0.7781584,0.6882815,0.71374243,0.52475715,0.49824747,0.20845184,0.35185879999999997,0.8488145,0.484872,2.0,2.0,0.67311275,0.6522366,0.638579,cluster0_pred,3.0,3
0.6314871999999999,0.022935572999999997,0.02096688,0.025223508,0.023755504,0.018104218000000002,0.11852921,0.6858555000000001,0.6425774999999999,0.6486319,0.6701446,0.6636378,0.6553536999999999,0.5918876000000001,0.61695576,0.60099757,0.55148,0.019920068,0.0042603808000000005,0.52836436,0.4917792,0.6397531,0.61431813,0.8762128,0.90756375,0.051311545,0.15241392,3.0,1.0,0.65139633,0.6460524,0.71351105,cluster2_pred,,2
0.5540416,0.7932921,0.7940906999999999,0.8000001,0.7948434,0.7315059,0.02803556,0.6635181,0.7133433000000001,0.6928532,0.7195649000000001,0.668458,0.61031485,0.5127483,0.52398247,0.50379145,0.47040862,0.8220152000000001,0.80450267,0.46528247,0.45220906,0.5728986999999999,0.49450734,0.73170406,0.54575664,0.76982874,0.41685550000000005,2.0,0.0,0.62528825,0.6697544,0.63365835,cluster1_pred,2.0,2
0.6444523,0.094285294,0.087578915,0.0914714,0.08618610000000002,0.070849776,0.053326055,0.6304504,0.6216811,0.6328134,0.65701956,0.6123432,0.6212138,0.56829846,0.5869781999999999,0.5765515,0.54642874,0.08156505,0.084576674,0.6265543,0.62150437,0.58448887,0.69924366,0.7222304,0.8433589,0.14605524,0.06435553,3.0,1.0,0.6503176,0.65257645,0.6883753,cluster2_pred,,1
0.6220315,0.14087619,0.13770665,0.14438272,0.14161557,0.11567166400000001,0.06674725,0.6917201,0.67051595,0.6549278000000001,0.6726909000000001,0.6498006,0.6312823000000001,0.5697548000000001,0.5415031,0.5431914000000001,0.53201485,0.13302714,0.12240714,0.6063056,0.6035309,0.5753571999999999,0.7243179,0.80624115,0.7461773,0.24780817,0.10683440400000001,2.0,1.0,0.6464741,0.6555577,0.68325144,cluster2_pred,,3
0.7099963,0.7563456999999999,0.76102567,0.7614883000000001,0.7582928000000001,0.7576189999999999,0.023625517000000002,0.6276301,0.7049236999999999,0.6687257,0.6807133000000001,0.75759226,0.7426414000000001,0.6768761999999999,0.6430374,0.6023494,0.6076874,0.7380229,0.70193106,0.722845,0.6852003000000001,0.67883414,0.7222097,0.8360588,0.8432838,0.887358,0.5666595,1.0,0.0,0.6442256,0.66545695,0.6518639,cluster1_pred,2.0,3
0.64523244,0.06818292,0.06608184,0.071273275,0.06928687,0.054741955999999994,0.08220385,0.6679341999999999,0.68013525,0.660096,0.6655681999999999,0.6148279999999999,0.60302216,0.558064,0.5738272,0.58711314,0.5555394,0.05536384,0.06241953,0.62741566,0.61917394,0.59211487,0.79887307,0.67727304,0.564663,0.11545053,0.056948733,3.0,1.0,0.64151645,0.65247846,0.70032233,cluster2_pred,,1
0.64956933,0.79674685,0.7985251,0.80227107,0.7991406,0.77033794,0.0036886844,0.6593939999999999,0.65668124,0.6807908,0.7166494999999999,0.6669739,0.6579864000000001,0.6369117,0.62825686,0.62345934,0.624524,0.7988177,0.76817113,0.643969,0.61782247,0.6371005999999999,0.79792804,0.8778290000000001,0.86457413,0.8508701,0.20836397,3.0,0.0,0.6168156,0.6763169,0.66158426,cluster1_pred,2.0,3
0.6123658000000001,0.04020921,0.033643436,0.03822179,0.034088176,0.021761348,0.15816112,0.62747884,0.5520571999999999,0.575491,0.5685251,0.5419563000000001,0.5507283000000001,0.48039132,0.494541,0.49958733,0.47375077,0.045105692,0.062666535,0.5905538,0.61200184,0.515748,0.42696092,0.31025958,0.46390092,0.11581984,0.08254513,2.0,1.0,0.6737813,0.6505327,0.71856725,cluster2_pred,,2
0.67180836,0.15133629999999998,0.14778042,0.14945641,0.14475401,0.12217319,0.099048585,0.6815441,0.6526546,0.6178153000000001,0.5857996,0.5275965,0.5299060999999999,0.4961358,0.5116632999999999,0.5106507,0.47008565,0.16810209,0.17234352,0.5319457,0.5619486,0.48471197,0.36146837,0.07787308,0.14101994,0.22333036,0.15464176,3.0,1.0,0.65807724,0.654391,0.72197604,cluster2_pred,,2
0.42971203,0.6837964,0.68997926,0.68562454,0.6903096,0.6951432,0.02696327,0.61814797,0.6521842,0.6414638,0.73763424,0.84825265,0.80747616,0.70525515,0.7386716999999999,0.7230718,0.6849022,0.72367686,0.6268522,0.37542307,0.2848775,0.7371538000000001,0.5063727,0.87200826,0.912107,0.8414041999999999,0.9042065,2.0,0.0,0.65424055,0.6317236,0.67032707,cluster2_pred,,3
0.6446824999999999,0.7218944,0.7193811,0.7224934000000001,0.71681714,0.64768136,0.010044451999999999,0.6187130999999999,0.5934808000000001,0.60119426,0.63409644,0.56913626,0.598691,0.5825564000000001,0.6029181,0.5538334,0.5307473,0.7279431,0.69575435,0.6352291,0.63300186,0.57952064,0.6079196,0.5090856,0.6757015000000001,0.72487783,0.2865586,3.0,0.0,0.64859605,0.6593059,0.654701,cluster1_pred,2.0,1
0.6147831,0.47646472,0.48243117,0.47997102,0.4836078,0.43695730000000005,0.010418779,0.6938171,0.7074872,0.72282875,0.7183811999999999,0.6775959,0.63027996,0.5332739000000001,0.51994663,0.5458601,0.5408194000000001,0.49632463,0.45901486,0.5309841,0.52924424,0.558761,0.59523356,0.69444466,0.4425242999999999,0.71798563,0.34419879999999997,2.0,0.0,0.6426447,0.65931886,0.63725984,cluster1_pred,2.0,2
0.60622793,0.73840034,0.74270976,0.7438996,0.74390423,0.7208332,0.011405287,0.66921735,0.6434411999999999,0.6537374,0.6666880999999999,0.6044863,0.65334886,0.5938991,0.5413727,0.5122062,0.52075684,0.7759130999999999,0.7670326999999999,0.5287746999999999,0.54005134,0.5279062,0.522771,0.763935,0.7336114,0.8445325,0.33765500000000004,2.0,0.0,0.63556147,0.6641574,0.6467115,cluster1_pred,2.0,3
0.6235415,0.6369176,0.63985157,0.64387536,0.6431848000000001,0.5799145,0.02907276,0.666979,0.6795983,0.64257383,0.61382073,0.52929056,0.52110684,0.47676796,0.45010936,0.5725078,0.60258687,0.66072595,0.6121868,0.54067016,0.53372294,0.5727613,0.5122781,0.34078515,0.21398978,0.7185865,0.4520715,2.0,2.0,0.6434834,0.6595175,0.6417026,cluster1_pred,2.0,1
0.6989324,0.8114774,0.81293684,0.8117903000000001,0.81039065,0.75115514,0.015472198999999999,0.6282774999999999,0.61235166,0.59302187,0.61323434,0.6143635999999999,0.5561403,0.5102896,0.53570235,0.50845546,0.46958414,0.82397074,0.793812,0.5925696999999999,0.5840281999999999,0.5862575,0.5366509,0.5908743000000001,0.7072345999999999,0.7758887,0.38495782,1.0,0.0,0.6486519,0.6639227,0.6394466,cluster1_pred,2.0,3
0.67476034,0.83139014,0.83525324,0.8333896999999999,0.84076095,0.84700656,0.022108711,0.6957708,0.70698404,0.81896704,0.88673085,0.88483924,0.85911447,0.80509037,0.85095,0.9076203000000002,0.89445376,0.8029085,0.7609213,0.5886848000000001,0.42526899999999995,0.94769794,0.7410346999999999,0.9920457,0.95566076,0.95731807,0.63385123,1.0,0.0,0.6375863,0.66002524,0.70957994,cluster2_pred,,1
0.6355427,0.22287800000000002,0.21926060000000003,0.22198598,0.22258705,0.20141648,0.08198549599999999,0.67038894,0.6734661,0.63875264,0.6412001,0.5950873999999999,0.6208134,0.5615093000000001,0.5859472,0.59456015,0.6064669,0.19544734,0.23336989,0.7382085,0.72904414,0.6151247,0.8004993,0.4668553,0.5472324000000001,0.31805712,0.17635916,3.0,1.0,0.6456161,0.65393615,0.6899777,cluster2_pred,,1
0.6598217,0.38932875,0.3927797,0.39366996,0.39104822,0.34640574,0.25741246,0.6807401,0.70051265,0.6692813,0.7021930999999999,0.6376214,0.6907543,0.6752989,0.68025666,0.6473426,0.6168541999999999,0.34507006,0.3484359,0.8228943000000001,0.8043668,0.65295887,0.86544645,0.8314662,0.83518606,0.44339848,0.381087,3.0,1.0,0.6546804,0.6593919,0.7329953,cluster2_pred,,1
0.7578388,0.07749148,0.07403480000000001,0.062768795,0.060547523,0.06255546,0.25226545,0.556535,0.5499626,0.4594903,0.4934442,0.4061792,0.39488379999999995,0.3624217,0.38361698,0.34845528,0.29616004,0.14151596,0.10985515,0.3450033,0.41619527,0.3532074,0.0,0.06612014,0.121492945,0.17905264,0.28687778,1.0,1.0,0.68077487,0.6769806,0.75026286,cluster2_pred,,3
0.6536036999999999,0.031620365,0.029112646000000002,0.034452774,0.03017722,0.022692839,0.12146143599999999,0.66166526,0.6306,0.6486316,0.6757619,0.6146651999999999,0.6314915,0.59889513,0.6114423000000001,0.6269758000000001,0.5863822,0.018193811,0.007907408000000001,0.5452362,0.48985037,0.6868936999999999,0.6142352,0.61335254,0.72296906,0.05907809,0.18526199999999998,3.0,1.0,0.6522175,0.63973594,0.72705376,cluster2_pred,,3
0.60819817,0.84664845,0.8500988000000002,0.8469196,0.8496451999999999,0.82399523,0.02175778,0.6612172,0.6985028,0.6765159000000001,0.7048616,0.6646645,0.66036433,0.6038671,0.6199819000000001,0.60709304,0.59126425,0.8527899,0.80374,0.60698944,0.57360864,0.64705795,0.7308831,0.7686394,0.7611709,0.8295146999999999,0.2690469,2.0,0.0,0.6279106,0.67338353,0.65934753,cluster1_pred,2.0,2
0.56283265,0.7687251,0.77211165,0.77646774,0.7725847,0.7664668,0.036765967000000004,0.6772855999999999,0.68431175,0.68664366,0.62382627,0.52509063,0.46864113,0.30775604,0.34067756,0.3609481,0.40387744,0.8126949,0.81107396,0.53428125,0.6050671,0.38978106,0.44480994,0.43998337,0.24745817,0.8643086,0.48228306,2.0,2.0,0.6345001,0.6668807,0.6174169,cluster1_pred,2.0,3
0.6014609000000001,0.2837196,0.29252422,0.28204882,0.29641256,0.26508692,0.058722607999999996,0.7723795,0.7577823,0.7493622,0.7202699,0.7020526999999999,0.6528139000000001,0.59628797,0.59046793,0.5845093000000001,0.5806939,0.27994949999999996,0.26078870000000004,0.59494585,0.578048,0.60624605,0.75949115,0.7663984,0.60446715,0.3956784,0.26463872,2.0,1.0,0.630414,0.65472376,0.67770946,cluster2_pred,,3
0.6656939000000001,0.73043525,0.73056346,0.73210925,0.729902,0.7049715,0.025653124,0.6351769,0.6545491999999999,0.6652647,0.67507195,0.61287916,0.6051863000000001,0.5489417,0.5481085,0.56826633,0.5871562,0.733521,0.781267,0.644041,0.64028364,0.58475727,0.6559429,0.60727626,0.5208778000000001,0.8459933000000001,0.43698326,3.0,0.0,0.64562345,0.66243064,0.6405685,cluster1_pred,2.0,1
0.6537975,0.12854469,0.12449994,0.12679392,0.12843418,0.10985328,0.08148639,0.63238037,0.61272264,0.65958756,0.672317,0.63472474,0.6293350000000001,0.55185866,0.59474665,0.58282316,0.54298824,0.12987235,0.11610164,0.5013055000000001,0.44952556,0.67019325,0.5319425,0.822152,0.8553994,0.22430071,0.14256629999999998,3.0,1.0,0.66029656,0.6435482,0.6953314,cluster2_pred,,2
0.68217385,0.14514661,0.13857426,0.14264315,0.14084305,0.12837565,0.06967168,0.65289927,0.63962966,0.64369667,0.63463175,0.602685,0.5981795,0.5387609999999999,0.5753461,0.53386176,0.5404575,0.12904747,0.13468258,0.63413656,0.62381876,0.59823465,0.70591867,0.5669856,0.56296587,0.2557572,0.14438272,1.0,1.0,0.650411,0.6516268,0.68895245,cluster2_pred,,1
0.67779243,0.026822131000000003,0.0205331,0.025223508,0.021196483,0.016275618000000002,0.14689231,0.65383315,0.68196034,0.6720600999999999,0.6350778,0.58755237,0.56645954,0.543281,0.5499460999999999,0.5467436,0.54128176,0.017269555,0.011730498999999998,0.5411461999999999,0.5144201,0.6191036,0.5762516,0.57127446,0.36848359999999997,0.054950647000000005,0.16639267,1.0,1.0,0.65492934,0.6479412,0.7305669,cluster2_pred,,1
0.6711959,0.69857496,0.7087772,0.7005074,0.714065,0.6800877,0.07101302599999999,0.74458945,0.8081421999999999,0.87926435,0.6913684,0.28694713,0.4234817,0.38410494,0.39832795,0.39600712,0.4167624,0.77094316,0.7652074000000001,0.34441054,0.39687043,0.39690056,0.43041247,0.36650097,0.19792934,0.8056552,0.6976418000000001,3.0,2.0,0.62574273,0.6689625,0.67093754,cluster2_pred,,1
0.6616563,0.124082364,0.12247556,0.12708384,0.12423351,0.11548547,0.045394994,0.69543487,0.65859085,0.6608618,0.64720345,0.6015802,0.62373054,0.5628886,0.598838,0.5728324,0.55746084,0.11261104,0.09779541,0.5768673000000001,0.54297704,0.64257985,0.6573206,0.5613220999999999,0.5363479999999999,0.2226679,0.15548486,3.0,1.0,0.64609134,0.64827496,0.6939084,cluster2_pred,,2
0.7858466,0.8304304,0.8259989,0.827108,0.82395834,0.8224688,0.02046323,0.58408314,0.5185512,0.5464069,0.44124857,0.5013799,0.4507692,0.49186406,0.544845,0.5763007,0.53981084,0.8285591999999998,0.87349737,0.7488098000000001,0.76903474,0.5483935000000001,0.56338453,0.10679272,0.23748991,0.8993211,0.5155457,1.0,2.0,0.68808806,0.6538998,0.68563753,cluster0_pred,3.0,1
0.68976754,0.8318699,0.8290837,0.8360957,0.83322877,0.80916154,0.006870467,0.66238326,0.6435668000000001,0.6431283,0.6458803000000001,0.59052235,0.590665,0.58086526,0.64286417,0.54756147,0.5382286999999999,0.85209835,0.83188736,0.56852686,0.5579204000000001,0.5865613000000001,0.58998936,0.39283797,0.48610193,0.82638216,0.27085814,1.0,2.0,0.657172,0.66261536,0.6577542,cluster1_pred,2.0,3
0.7439517,0.7867665,0.79601866,0.7657404999999999,0.79344314,0.77321184,0.053322155,0.77075386,0.53780377,0.5537807,0.6484635,0.44395342,0.35224554,0.2882467,0.33359444,0.2774928,0.18586831,0.86816967,0.8491115,0.38521338,0.4757286,0.31558815,0.35995588,0.32753915,0.32345662,0.8034399,0.85265476,1.0,2.0,0.6138498,0.6601361,0.65287095,cluster1_pred,2.0,3
0.66886055,0.6301041000000001,0.62972957,0.62275916,0.63135535,0.5805375,0.052756764000000005,0.6501473000000001,0.49309856,0.4444298,0.48364696,0.456504,0.38728976,0.40144724,0.40369835,0.33929238,0.3107257,0.70245254,0.67822844,0.38428125,0.42462158,0.43274602,0.18264203,0.14976247,0.24204785,0.7038711,0.36084378,3.0,2.0,0.65950626,0.6525005,0.64377666,cluster0_pred,3.0,2
0.68574834,0.60126674,0.60037595,0.6056536,0.6030129,0.5411617,0.041464556,0.6520362,0.6683298000000001,0.69167864,0.67930365,0.6101835999999999,0.63340217,0.49228869999999997,0.5240657,0.49616990000000005,0.57562375,0.614294,0.6169514,0.59733415,0.60755724,0.5432735,0.5993178000000001,0.7293972,0.46965545,0.7599593000000001,0.35606948,1.0,0.0,0.64624983,0.66550034,0.638881,cluster1_pred,2.0,2
0.6342173000000001,0.77611446,0.7785704000000001,0.76429087,0.7582928000000001,0.75339043,0.08066365,0.56283265,0.5751371,0.6095047,0.6203396999999999,0.5107712000000001,0.45444012,0.37686816,0.28492442,0.27457109999999996,0.28396493,0.81332004,0.8054051,0.5094626,0.5829384,0.3788196,0.36370358,0.46927709999999995,0.37610403,0.8561139000000001,0.5110523,3.0,2.0,0.6342004,0.66305274,0.6299266,cluster1_pred,2.0,3
0.61965656,0.1959119,0.19400395,0.19188212,0.18613298,0.17244500000000001,0.101006,0.5353576,0.5536552,0.50157243,0.5517765,0.48404986,0.5409767,0.523098,0.53828216,0.5611983,0.5181908,0.21747321,0.22383289999999997,0.547284,0.5582123999999999,0.5322041999999999,0.40086946,0.33420843,0.5704385999999999,0.28374463,0.29924570000000006,2.0,1.0,0.6665881,0.63506734,0.6890703,cluster2_pred,,2
0.7624479000000001,0.7847513,0.780402,0.74931145,0.7537541,0.7410180000000001,0.04417453,0.45479128,0.5400294,0.45624098,0.47305974,0.53032047,0.44524020000000003,0.31267816,0.34676185,0.3581046,0.27319935,0.8348593000000001,0.83246946,0.36397654,0.3987785,0.44187593,0.30503184,0.25058946,0.29060555,0.7841305000000001,0.7795637,1.0,2.0,0.6319625,0.64596444,0.60848933,cluster1_pred,2.0,3
0.5784873,0.763735,0.7748108,0.76960623,0.7769302,0.7661471,0.043324497000000003,0.7312058000000001,0.8667761999999999,0.9248521000000001,0.8773301,0.7672946999999999,0.74288994,0.7276538,0.84621245,0.78293777,0.76619154,0.7355085,0.69936436,0.6710669,0.5819613,0.7894296,0.788036,0.8593685999999999,0.6974799,0.85057265,0.5702295000000001,2.0,0.0,0.6194241,0.6693088,0.69181126,cluster2_pred,,3
0.6295875,0.60913587,0.6037017,0.5992269,0.5996331,0.582147,0.14762147,0.56162703,0.5561997,0.17267351,0.24005996,0.17322683,0.11129554,0.11927078,0.2053511,0.13785018,0.15502384,0.71621394,0.708133,0.25718296,0.36132729999999996,0.25961998,0.11095535,0.07753434,0.117882065,0.794021,0.6098135,3.0,2.0,0.65625995,0.6525681,0.66234946,cluster2_pred,,3
0.7258095,0.59915555,0.5943510000000001,0.57361686,0.5740428000000001,0.55080414,0.06063324,0.4683317,0.32713947,0.37971956,0.49023485,0.33610186,0.35007453,0.4389054,0.43825486,0.43577632,0.46503597,0.6342646,0.6372133000000001,0.38611576,0.34321594,0.62774736,0.31339559999999994,0.38794047,0.55499923,0.72868705,0.8309354,1.0,2.0,0.6628295,0.63317674,0.66508585,cluster2_pred,,2
0.667932,0.10757642,0.10849763,0.109688334,0.11235576,0.10224653,0.112345,0.7242462,0.73350877,0.6873599,0.73825914,0.6549349,0.6836463,0.62270874,0.6606254,0.65026176,0.6735094,0.06885102,0.0762549,0.6592388000000001,0.5890656999999999,0.7429300999999999,0.7540876,0.8012312,0.74576116,0.25029257,0.32224262,3.0,1.0,0.6588777,0.64640534,0.72226775,cluster2_pred,,1
0.62975395,0.8340771,0.83428925,0.8381252,0.8397953000000001,0.8150951,0.006273883,0.68976754,0.6738597,0.6746361999999999,0.67429525,0.6260935999999999,0.611916,0.5672898000000001,0.6217705,0.6604535,0.54985374,0.8523132,0.7987698000000001,0.57756156,0.55993694,0.60467356,0.65683156,0.58138514,0.47566777,0.8283696,0.2635048,3.0,0.0,0.64193213,0.6664114,0.6559109,cluster1_pred,2.0,1
0.6430284,0.11386210000000001,0.110232815,0.11606669,0.113418005,0.09089475,0.08220385,0.6613009,0.6116436,0.6252941,0.6325497,0.57739633,0.57623106,0.54158896,0.5634208,0.557479,0.53744346,0.10649462,0.124171495,0.6270788,0.62331957,0.5815691999999999,0.73725164,0.51094455,0.636193,0.20571285,0.011229919,3.0,1.0,0.6462282,0.65448695,0.69612396,cluster2_pred,,1
0.6905483,0.11851639,0.11235358,0.11785457,0.113128275,0.09829881,0.066731654,0.64357597,0.5977095,0.6165678000000001,0.5985829,0.5781529000000001,0.5560151999999999,0.4913714,0.50379086,0.46515638,0.45634365,0.13858546,0.13524649,0.43327543,0.42197895,0.5627193,0.28832072,0.24279177,0.2594008,0.20568560000000002,0.120595485,1.0,1.0,0.6617233,0.6565605,0.6990592,cluster2_pred,,3
0.66448504,0.63514227,0.63570637,0.64126605,0.6388393,0.62038094,0.049309835,0.6576031,0.6438318000000001,0.6558621,0.6100595999999999,0.6279484000000001,0.6431394,0.61753154,0.6861944999999999,0.7174774,0.6727574000000001,0.62469953,0.60080314,0.5289108,0.41818777,0.8132265000000001,0.60091674,0.60989183,0.68374836,0.80952585,0.5187062,3.0,0.0,0.64043784,0.6518604,0.6910744,cluster2_pred,,1
0.6699103,0.56470424,0.5885670000000001,0.56888145,0.5869828,0.5621354000000001,0.04661156,0.7258095,0.53462225,0.41390058,0.45977658,0.49766530000000003,0.38590726,0.3771461,0.5092867999999999,0.47517595,0.4604589,0.6320058000000001,0.63579035,0.37378973,0.34413898,0.5944446999999999,0.3761196,0.20468393,0.40355176,0.7320963,0.8488460999999999,3.0,2.0,0.64397144,0.64007396,0.6356318,cluster0_pred,3.0,1
0.644946,0.7450219,0.74020344,0.7334622,0.7269085,0.70560116,0.035958823,0.53861415,0.5008549,0.55205685,0.5471253,0.4820647,0.47546273,0.41773787,0.38143572,0.39438629999999997,0.39663625,0.7740349,0.7913074000000001,0.57046676,0.63202393,0.41817259999999995,0.36497379999999996,0.4001429,0.41302127,0.84431815,0.38165665,3.0,2.0,0.6583627,0.655497,0.62931657,cluster0_pred,3.0,2
0.52144724,0.8295667999999999,0.8313009,0.83358306,0.82989717,0.76179403,0.040817282999999996,0.6590616,0.5505953,0.5599761,0.58536094,0.47195542,0.51258004,0.464071,0.4896232,0.4610974,0.44348934,0.8546312,0.85243905,0.63038003,0.67169476,0.47678575,0.49325308,0.2326779,0.34151644,0.7763389,0.47014043,2.0,2.0,0.6681513,0.6569503,0.6466573,cluster0_pred,3.0,3
0.7046788,0.027301947000000003,0.023521458999999998,0.028605955,0.02616968,0.023442207000000003,0.092240505,0.6583383,0.60197216,0.6381842,0.64360595,0.6106961999999999,0.5893646,0.534586,0.55084884,0.51814455,0.4885633,0.03998795,0.020351937,0.5174899000000001,0.51786727,0.5512701,0.4687401,0.759509,0.7513287,0.088906474,0.097986,1.0,1.0,0.6630012,0.6561848,0.69913167,cluster2_pred,,3
0.68597686,0.73408186,0.7298886,0.7294999,0.72333544,0.71732557,0.069991425,0.6078566,0.62816423,0.61385417,0.6668294,0.5815119000000001,0.6173548000000001,0.53225523,0.53767014,0.58093405,0.58271843,0.7264663,0.7127295,0.56917095,0.51712346,0.68359196,0.5546814999999999,0.64462525,0.7104224,0.82528657,0.4200308,1.0,0.0,0.6516952,0.6583847,0.6584609,cluster2_pred,,1
0.67038345,0.8123891,0.8158770000000001,0.81193525,0.81150115,0.8109706,0.023009436,0.65133774,0.7000153,0.7496041,0.8146213000000001,0.8402254000000001,0.8870741,0.8188964,0.6058385000000001,0.6656644,0.6403718,0.7991203,0.73859125,0.6659944999999999,0.61929464,0.68930966,0.71865344,0.9150004999999999,0.8999005999999999,0.9087671,0.5600639000000001,3.0,0.0,0.63356745,0.66507816,0.6596705,cluster1_pred,2.0,3
0.7379511999999999,0.7758745,0.7856076,0.77733755,0.78856647,0.7207795,0.04748498599999999,0.67369175,0.57983595,0.6730385,0.586032,0.49947712,0.49293354,0.39147264,0.47431359999999995,0.46240196,0.40159288,0.8303200999999999,0.82811236,0.5462799,0.6000091999999999,0.43192586,0.46006265,0.4272938,0.3115507,0.75229645,0.68275493,1.0,2.0,0.6396693,0.66009265,0.63297176,cluster1_pred,2.0,3
0.511526,0.69348884,0.70260763,0.6974149000000001,0.7068225,0.70228326,0.029232629,0.7030118000000001,0.6638785,0.6550998,0.5609283,0.51584035,0.53209305,0.52427125,0.5607384,0.5545859999999999,0.6251994000000001,0.751426,0.7277688,0.34137177,0.3029522,0.6088491,0.3876038,0.29016796,0.3336234,0.7828996,0.60202307,2.0,2.0,0.6503338,0.6519804,0.66195595,cluster2_pred,,2
0.6909313,0.11789264,0.11076302,0.11828944,0.111438364,0.105555534,0.028940186,0.6376364000000001,0.6435982,0.6190589,0.63130367,0.60360473,0.59963936,0.57195705,0.61434555,0.57969123,0.5690045,0.11380435,0.120308995,0.5366384,0.50564563,0.62823266,0.5445247,0.65157396,0.7537048000000001,0.21567619,0.17365146,1.0,1.0,0.6515902,0.64295423,0.6860351,cluster2_pred,,3
0.6819637,0.83945113,0.84113365,0.84054124,0.84472024,0.8506927,0.020318958999999998,0.67476034,0.6900564,0.7206094,0.82418656,0.85481304,0.89283186,0.795766,0.8251630999999999,0.86236584,0.90081656,0.80182076,0.77157414,0.6326187,0.46571353,0.9641267,0.7553177,0.9956521999999999,0.98320574,0.9596976,0.61323816,1.0,0.0,0.6350933,0.6633255,0.7033193,cluster2_pred,,1
0.71177435,0.7280361,0.7264183000000001,0.7199324,0.7156100999999999,0.7183941,0.12829680000000002,0.5855568,0.45062754,0.42002475,0.42412955,0.47037458,0.5030317,0.44632816,0.47604890000000005,0.5270559,0.5366325,0.71364385,0.76275045,0.6086319,0.5464885,0.7146279000000001,0.46959913,0.18796010000000002,0.45996732,0.85658586,0.82939714,1.0,2.0,0.67831886,0.64394695,0.6731935,cluster0_pred,3.0,2
0.6390895000000001,0.0031668340000000003,0.00038560675,0.0032858194,0.0030901425,0.0033376472999999997,0.17138734,0.6648908,0.62917936,0.5943379,0.5993301,0.5479002,0.507309,0.4611272,0.46597192,0.45833029999999997,0.44303703,0.01972503,0.04043123,0.48613286,0.49870002,0.5168627,0.33999515,0.13253509,0.075143814,0.03215454,0.16060728,3.0,1.0,0.66169167,0.6517929,0.7461374,cluster2_pred,,2
0.67016363,0.13075191,0.12512653,0.1246195,0.12075708,0.112787575,0.09399516,0.5510655,0.57657164,0.5890704000000001,0.59279126,0.5797123000000001,0.6101309,0.52998525,0.5043495,0.5019109,0.542145,0.10497845,0.11539842,0.7377100000000001,0.74258345,0.5822037,0.5910236,0.6692765,0.84082913,0.26500776,0.3413392,3.0,1.0,0.6864561,0.6480272,0.6863136,cluster0_pred,3.0,3
0.5332657,0.5939734,0.6033161,0.5946847,0.5903626000000001,0.5650951999999999,0.03386103,0.6699103,0.71225256,0.5588234000000001,0.44976459999999996,0.42622784,0.5053489000000001,0.37276143,0.41642618,0.5124657,0.46503540000000004,0.63001955,0.6328145000000001,0.36961955,0.34397626,0.5842885,0.392356,0.25604856,0.27666837,0.7287486,0.8354591,2.0,2.0,0.636525,0.6508171,0.6238891,cluster1_pred,2.0,3
0.65119314,0.39307138,0.39644286,0.3804784,0.39746994,0.35161367,0.42131326,0.6697571999999999,0.7111105999999999,0.6832085999999999,0.66451824,0.5949239000000001,0.59367484,0.5505793000000001,0.5875148,0.6116666999999999,0.569578,0.3715226,0.36987555,0.7865069,0.8079244000000001,0.5526996999999999,0.8122991999999999,0.6989926,0.5351876999999999,0.5195637,0.40303504,3.0,1.0,0.66767806,0.6647588,0.77097815,cluster2_pred,,1
0.67584735,0.71815175,0.7168747,0.7233148,0.7167689,0.6824730999999999,0.02695547,0.6689217,0.6331776,0.66252846,0.6215839,0.5710900999999999,0.5317911999999999,0.46695077,0.46605638,0.46228823,0.40221813,0.7606739,0.75660485,0.45148602,0.48174074,0.46897970000000005,0.40023172,0.54852676,0.37488186,0.8206865,0.41418618,1.0,2.0,0.63533545,0.66245675,0.6309428,cluster1_pred,2.0,3
0.683665,0.774579,0.7769315999999999,0.78265285,0.7752885,0.7489609,0.022775482000000003,0.63107634,0.61848855,0.62481886,0.6235599000000001,0.5704803,0.54923046,0.50301355,0.5179676,0.5024857,0.47752079999999997,0.78162277,0.7690281,0.6442378000000001,0.6470640000000001,0.56939894,0.6247868000000001,0.3269827,0.2627143,0.8520783000000002,0.23204517,1.0,2.0,0.66080594,0.6630389,0.64976454,cluster1_pred,2.0,2
0.62733626,0.84328973,0.84826726,0.83203673,0.832939,0.8128463,0.03591983,0.580544,0.68279797,0.6965302,0.6917476,0.74199307,0.8403108,0.73059666,0.6916899000000001,0.5807559,0.47741386,0.84029067,0.7644824,0.52537,0.45940329999999996,0.7078979000000001,0.5672417,0.8439049000000001,0.8780051,0.8138509,0.7227336999999999,3.0,0.0,0.6457371,0.6560309,0.66171193,cluster2_pred,,2
0.5279034,0.7440621999999999,0.7491685,0.7508577,0.7509537,0.7384776,0.025372379,0.6659394000000001,0.6328028,0.7324084,0.5923433000000001,0.5440869,0.50411665,0.33046922,0.36398959999999997,0.40037552,0.44240509999999994,0.7968727,0.79953974,0.37906483,0.3794498,0.5251993,0.39342004,0.5294394,0.35310414,0.78559864,0.72975844,2.0,2.0,0.6268313,0.66446483,0.6221472,cluster1_pred,2.0,1
0.67243326,0.8509189,0.8470139999999999,0.84474516,0.84076095,0.7711805,0.03375965,0.56211907,0.607545,0.59932196,0.6084135,0.5371132,0.5357432,0.49021184,0.5309908,0.50934523,0.51695406,0.84410936,0.8523199,0.695237,0.6997701999999999,0.5750054,0.5903951999999999,0.51313424,0.597812,0.7796663,0.4746656,3.0,0.0,0.6620422,0.66384405,0.6440424,cluster1_pred,2.0,1
0.6676023,0.017849438000000002,0.011134146999999999,0.017782075,0.01216745,0.0063484954,0.04734461400000001,0.63609284,0.6209726999999999,0.6289161,0.6315057,0.58831036,0.5844604999999999,0.5484659000000001,0.5734149000000001,0.5505717,0.5373507,0.004627673400000001,0.009772417,0.57831043,0.55229425,0.62443805,0.64776933,0.66854477,0.74230987,0.017619058,0.026665539,3.0,1.0,0.65042037,0.65155697,0.6964828,cluster2_pred,,2
0.6529951,0.10748044,0.10237624,0.10997825,0.10598234,0.08542154,0.054464635,0.6584528000000001,0.6469849,0.63353103,0.64973503,0.61597455,0.6006395999999999,0.563553,0.5841005,0.5670894000000001,0.5520916,0.09300353,0.10001928,0.62068856,0.6033818,0.61204714,0.7762481,0.71867275,0.72652787,0.20060825,0.03896244,3.0,1.0,0.6441601,0.6545356,0.68973917,cluster2_pred,,3
0.7140748,0.83004653,0.8310117,0.82759124,0.83496696,0.7725285,0.08397411,0.68772,0.6894389,0.6305879,0.6182066999999999,0.6129194,0.65901536,0.6231621999999999,0.6284420000000001,0.6186815999999999,0.57499707,0.83753234,0.8051514,0.63019377,0.6060113,0.62991506,0.6714084,0.5084556,0.585619,0.79809284,0.35864606,1.0,0.0,0.65378875,0.6647345,0.67847633,cluster2_pred,,3
0.7261711999999999,0.024471007000000003,0.022894876,0.02097125,0.016319836,0.012791004,0.16548389,0.6280314,0.5753828000000001,0.56191015,0.52359587,0.49039415,0.46933739999999996,0.45336255,0.48991817,0.45563218,0.42538264,0.046504135999999995,0.058506395999999995,0.5346236999999999,0.584212,0.43941575,0.2505365,0.22529998,0.23135272,0.10784276599999999,0.16500385,1.0,1.0,0.6786658,0.6564394,0.73692286,cluster2_pred,,3
0.66386384,0.35276625,0.3492071,0.35245228,0.352518,0.31973979999999996,0.058535445,0.63379383,0.6172398,0.5742636,0.5562469,0.43554977,0.43202993,0.39696732,0.41985545,0.39407316,0.38322836,0.3797003,0.3950264,0.5158704000000001,0.54924476,0.47380218,0.32143947,0.13548295,0.07991469999999999,0.6466505,0.29428124,3.0,2.0,0.67215836,0.657559,0.67830133,cluster2_pred,,2
0.4088225,0.8528861999999999,0.8606064,0.8614158000000002,0.8611366,0.8659761999999999,0.018408328,0.72038335,0.71809244,0.730784,0.75897986,0.7417715,0.8398476,0.8334527,0.87710506,0.8601213,0.86226565,0.80163723,0.7946246,0.7123658,0.54789615,0.97344047,0.8137861999999999,0.95036584,0.9858125,0.9626024999999999,0.58405507,2.0,0.0,0.632658,0.67264444,0.7126556,cluster2_pred,,3
0.70383537,0.7396478,0.73837185,0.73877746,0.73627543,0.7332453,0.043008655,0.62300855,0.6130875,0.69331,0.7288872,0.73729724,0.7311491,0.6326943,0.8612884,0.75277185,0.69262356,0.7103253,0.69133866,0.5255286,0.35430264,0.9540754000000001,0.6039733,0.8307421,0.83968866,0.8613950999999999,0.8650861999999999,1.0,0.0,0.66257924,0.64886147,0.69526654,cluster2_pred,,3
0.61161584,0.08392113,0.07899937,0.08243538,0.07812273,0.07602007,0.11147937,0.652864,0.65210605,0.71327627,0.73223585,0.66819865,0.6735571,0.6503643,0.66426325,0.6339504,0.536299,0.08220603,0.04840276,0.39094967,0.300738,0.73929536,0.50457096,0.9474948000000001,0.9197748,0.18929325,0.29502490000000003,2.0,1.0,0.6633088,0.63302106,0.71961904,cluster2_pred,,1
0.5965453000000001,0.8380116,0.84711045,0.8417009,0.83670515,0.8123028,0.065246046,0.64082474,0.603007,0.6755762,0.6639618,0.650521,0.63953924,0.60235924,0.6553778,0.6419404000000001,0.6421208,0.8484096,0.804404,0.6228800999999999,0.6027588,0.6190413,0.6884504,0.698239,0.7933866,0.8439645,0.30065197,2.0,0.0,0.6408518,0.66676843,0.68136376,cluster2_pred,,2
0.65316087,0.9786958,0.98505807,0.97854555,0.98706007,0.98790544,0.024783593,0.6965538,0.5920505,0.58817655,0.60539913,0.52340496,0.5802016,0.5261225,0.5266909000000001,0.5343439999999999,0.56490546,0.9853385,0.9992771,0.75156456,0.768988,0.55546325,0.67034686,0.41408452,0.44646934,0.99642414,0.50232685,3.0,0.0,0.6730093,0.6680914,0.65986705,cluster0_pred,3.0,1
0.59298223,0.4722902,0.46652526,0.47209477,0.4663223,0.41782296,0.018669577,0.6304717,0.60379833,0.64893705,0.6407109000000001,0.65634304,0.66399735,0.65541166,0.67646104,0.6804806,0.6918183000000001,0.45269346,0.42921934,0.62057626,0.5482868000000001,0.74060255,0.6706359000000001,0.7456106,0.84551597,0.7128996999999999,0.37328103,2.0,0.0,0.64712006,0.6465273,0.69083,cluster2_pred,,2
0.6391472,0.06156134,0.05629730000000001,0.062768795,0.059147335999999995,0.047381453,0.09053264,0.664424,0.63703215,0.6480066,0.6545006999999999,0.6003669,0.60763115,0.5788161000000001,0.5985301,0.602715,0.5555393,0.037017055,0.048981592000000004,0.63372827,0.59954274,0.6539722,0.7816373999999999,0.8706805000000001,0.8914752,0.12262725,0.06595843,3.0,1.0,0.65170234,0.6543817,0.70673496,cluster2_pred,,3
0.5938812,0.71325755,0.7119584,0.71432716,0.7119405,0.6684929000000001,0.035381734,0.6467705,0.64353436,0.7779623,0.737693,0.696625,0.70629185,0.6981368,0.7756359,0.7754755,0.747618,0.63119555,0.6804704,0.8609918,0.7358191999999999,0.9095174000000001,0.83918744,0.8603096,0.8107963,0.7471591,0.6770108,2.0,0.0,0.6513425,0.66693944,0.7002874,cluster2_pred,,2
0.61094505,0.24331848,0.24393888,0.24687123,0.24421805,0.21860753,0.0417531,0.6647524,0.69048125,0.70093244,0.6776806,0.5873311,0.52191293,0.5119872,0.65432084,0.6483589,0.6579719,0.22135393,0.2082958,0.6588189,0.6240502,0.66005826,0.67781454,0.5073675999999999,0.31811747,0.34146062,0.33663930000000003,2.0,1.0,0.64765716,0.64410955,0.6938721,cluster2_pred,,2
0.6680828000000001,0.23962381,0.23343134,0.23885,0.23557529999999996,0.21173881,0.06878266,0.6901191,0.65390396,0.6231733,0.5977835,0.5598148000000001,0.59349525,0.5564305,0.557465,0.5141062,0.44214982,0.2261754,0.21686497,0.6315588000000001,0.6304352,0.57624894,0.5993691999999999,0.28293037,0.31772596,0.3339808,0.31185344,3.0,1.0,0.6508264,0.65054685,0.6825173,cluster2_pred,,1
0.6555857,0.24091937,0.23637153,0.24083112,0.23963113,0.21947785,0.020658193000000002,0.6659441999999999,0.6637638000000001,0.62646013,0.6167481,0.5574735,0.55515426,0.5230452,0.56810653,0.5710447,0.5735731,0.24088969999999998,0.23171888,0.61143094,0.62221354,0.54461825,0.5872232,0.37492943,0.35360417,0.35398024,0.24234049,3.0,1.0,0.6474591,0.64709556,0.6698016,cluster2_pred,,3
0.705544,0.7156087,0.72217673,0.72002906,0.72545993,0.6665629,0.09150745,0.7099770000000001,0.7582595999999999,0.7796765,0.7428095,0.72053623,0.6844693000000001,0.606771,0.6113126999999999,0.61771363,0.63300157,0.67772937,0.6872099,0.78543615,0.7446851,0.69787854,0.76336384,0.8341181999999999,0.61115515,0.74777913,0.5868784,1.0,0.0,0.64680845,0.67469335,0.6646118,cluster1_pred,2.0,3
0.7224028,0.18132527,0.18272524,0.18502057,0.18627782,0.17256010000000002,0.060797005999999994,0.6814066,0.6288414999999999,0.5365222,0.5697628,0.46765226,0.49705538,0.44167534,0.5189423,0.5345394,0.5076473,0.21488310000000002,0.22141425,0.5133293999999999,0.53870666,0.49202514,0.41658900000000004,0.13086489,0.20917846,0.28870574,0.28573748,1.0,1.0,0.65427184,0.6500616,0.687356,cluster2_pred,,1
0.86775273,0.35430163,0.35055667,0.35148588,0.34759307,0.3157107,0.07123138,0.5934388,0.65047735,0.54658824,0.53013074,0.53896105,0.5705555999999999,0.54429007,0.5582465,0.51419973,0.5111709,0.3757773,0.34398776,0.48527902,0.46890370000000003,0.5843837,0.41948199999999997,0.19343741,0.38099915,0.6674088,0.30106008,1.0,1.0,0.66010505,0.64493394,0.68062645,cluster2_pred,,3
0.70342886,0.6278489,0.6261628,0.6246437,0.6227126000000001,0.59651417,0.044240817,0.63257533,0.6995895000000001,0.77782685,0.87305796,0.7371241,0.7428108,0.72561175,0.62312853,0.51617754,0.51451445,0.62432146,0.5627448,0.4534838,0.37018684,0.7348949,0.5480541,0.9370008,0.8089244999999999,0.7374537,0.78789663,1.0,0.0,0.67737347,0.64776564,0.66303295,cluster0_pred,3.0,3
0.6063821999999999,0.24130319,0.23593771,0.24058954,0.2353822,0.21606493,0.039998442,0.62192,0.6080827,0.62290704,0.6446857,0.56414026,0.5440093,0.4910326,0.5164134,0.5198117,0.52326125,0.24327384,0.2343419,0.60043937,0.61305165,0.5382708,0.5365622,0.6193036,0.531899,0.34990072,0.20992805,2.0,1.0,0.6585459,0.6507183,0.6609265,cluster2_pred,,1
0.6850335999999999,0.07739553,0.074179396,0.07895627599999999,0.07566029,0.06310184,0.07353193,0.6620125,0.6118524000000001,0.6151425,0.5960755999999999,0.5489427,0.5376288,0.48184186,0.5111394,0.50990814,0.50556445,0.08556597,0.09778467,0.57083315,0.5927975000000001,0.51082885,0.46067914,0.19100343,0.16416675,0.14420298,0.07045317,1.0,1.0,0.65849566,0.64737135,0.71742225,cluster2_pred,,2
0.6376778000000001,0.807207,0.80999666,0.8029476,0.79943025,0.7518596,0.03412228,0.6184041,0.6476433000000001,0.6193998000000001,0.74601406,0.45439216,0.42817456,0.42682177,0.46531203,0.48517117,0.47261116,0.8137105,0.83056813,0.7613797,0.84728026,0.39717782,0.59066534,0.49358967,0.39182243,0.79980874,0.5486612,3.0,2.0,0.65227735,0.6635419,0.62916964,cluster1_pred,2.0,3
0.68969995,0.07801928,0.0749024,0.07852139999999999,0.07416347400000001,0.058282035999999995,0.08714029,0.624169,0.60754097,0.6179720000000001,0.62354565,0.5874560999999999,0.58851105,0.5365554,0.56492335,0.55357665,0.5422608,0.06563725,0.076598935,0.64349127,0.63583577,0.59376955,0.73319477,0.63619226,0.78690267,0.13045709,0.039586500000000004,1.0,1.0,0.6520112,0.65352046,0.6967999,cluster2_pred,,2
0.538347,0.6660429,0.6719526,0.6670694,0.6761142,0.64018613,0.047336817,0.74444324,0.7520571,0.6964545,0.60413796,0.52756906,0.47116396,0.35375917,0.34851378,0.39532188,0.33618978,0.7319628,0.702475,0.43785316,0.5355123,0.30878946,0.40745159999999997,0.33836448,0.16011404,0.7464795999999999,0.52613866,2.0,2.0,0.62054974,0.6614487,0.62548065,cluster1_pred,2.0,2
0.65475893,0.22436543,0.21718802,0.21633245,0.21384771,0.19447108,0.054768775,0.61376345,0.6552589,0.65378046,0.6668889,0.64632255,0.5848977,0.5658827,0.52633226,0.51522356,0.5151555999999999,0.21180108,0.20257469,0.5800501,0.5629588000000001,0.6038949,0.56934196,0.78237754,0.64708465,0.30526617,0.2709955,3.0,1.0,0.6567362,0.65003115,0.6703009,cluster2_pred,,1
0.81523013,0.78417546,0.78782475,0.784634,0.7894839,0.7215676,0.07777431,0.6775693,0.6389048,0.5060409,0.48369858,0.42511272,0.4028223,0.39057600000000003,0.42502084,0.41546359999999993,0.41834372,0.81284994,0.82920635,0.7296229000000001,0.8264520000000001,0.36564448,0.5291081,0.18460001,0.17761727,0.7480106,0.5321191999999999,1.0,2.0,0.6730667,0.6587196,0.6863765,cluster2_pred,,3
0.5640175999999999,0.6676743,0.672772,0.6739309,0.676597,0.6191521,0.03134212,0.7123376,0.6490173,0.5781341,0.57839894,0.55669665,0.57576704,0.5428545,0.56192344,0.52376294,0.48349255,0.7107523,0.69624054,0.4786875,0.47859880000000005,0.545057,0.42946947,0.16558535,0.32344466,0.70938516,0.25969958,2.0,2.0,0.6571944,0.6563219,0.64702916,cluster0_pred,3.0,2
0.8240138000000001,0.60356987,0.60938925,0.606765,0.6093863,0.5790015000000001,0.06931295,0.61244816,0.61725557,0.71756184,0.5493503000000001,0.46692038,0.49820396,0.53572005,0.62543553,0.57565725,0.3796165,0.7102231,0.6413278,0.04585143,0.0,0.57060856,0.27727193,0.47174996,0.41620317,0.7235632,0.71480316,1.0,2.0,0.6534844,0.64620745,0.7012186,cluster2_pred,,3
0.66042584,0.6008829000000001,0.59705013,0.59845376,0.5961566999999999,0.5790679,0.07016299,0.6295875,0.5320433000000001,0.5460417,0.19912627,0.17784789,0.15420346,0.10300782,0.14717420000000003,0.17876868,0.10232541,0.7139869000000001,0.7034613000000001,0.20719050000000003,0.32262653,0.22380547,0.103025086,0.05725125,0.09162308,0.7932325,0.5834816999999999,3.0,2.0,0.6366745,0.65412766,0.7068609,cluster2_pred,,2
0.7817143,0.75591385,0.77982354,0.7619232,0.7814688,0.7146818,0.061264914000000004,0.80525917,0.7294586,0.6831001999999999,0.62471575,0.61153543,0.50606567,0.51767725,0.5373739000000001,0.5138279,0.49916520000000003,0.77015704,0.7852607,0.799837,0.8751,0.42929143,0.69540733,0.32661447,0.1863991,0.7447978,0.60685235,1.0,2.0,0.6512423,0.66486275,0.6665765,cluster2_pred,,2
0.6398242,0.6374454,0.6410084,0.6390433000000001,0.6363285,0.61814755,0.05118927,0.64613134,0.5801508000000001,0.510508,0.49605796,0.44316843,0.48834765,0.52361834,0.5512729000000001,0.5931628999999999,0.54718566,0.65949804,0.67393064,0.5896326,0.5935723,0.55651754,0.47132224,0.10686518,0.32030925,0.8042398000000001,0.4590363,3.0,2.0,0.6760301,0.645973,0.67486614,cluster0_pred,3.0,2
0.7367493,0.63974863,0.64047813,0.6344045,0.6377771,0.5753609000000001,0.057973955,0.63467294,0.5023306,0.52184117,0.53618777,0.50013596,0.55635494,0.5577667,0.5968809,0.57419914,0.5101713,0.67147255,0.6798913000000001,0.5696876000000001,0.57734,0.54408175,0.450776,0.28016764,0.5028376,0.72520506,0.47426245,1.0,2.0,0.66562384,0.6428727,0.67179894,cluster2_pred,,3
0.48326117,0.8218896000000001,0.82493854,0.82295245,0.8220270000000001,0.8295653000000001,0.028339702999999997,0.6015218000000001,0.78492737,0.8628261,0.84703594,0.65607077,0.5826225,0.46797746,0.43283817,0.44227287,0.43804620000000005,0.86208683,0.83214915,0.46677029999999997,0.49815398,0.4692163,0.48949352,0.7301681,0.48091468,0.96065176,0.7295031999999999,2.0,0.0,0.6267896,0.6675486,0.6190975,cluster1_pred,2.0,2
0.61710876,0.78571093,0.7950547,0.7908673,0.7955675999999999,0.7874953,0.035748266,0.67964625,0.68431133,0.65664476,0.7184246999999999,0.7004113000000001,0.6635854999999999,0.6017664,0.581071,0.638827,0.5701366999999999,0.7878416,0.7600110999999999,0.6735127,0.65733117,0.61935794,0.69747734,0.86119527,0.847407,0.86483413,0.42463136,2.0,0.0,0.6343712,0.6695526,0.6457863,cluster1_pred,2.0,2
0.7023725000000001,0.34105852,0.34612232,0.346074,0.348945,0.3168167,0.120291665,0.71292275,0.63653064,0.68390113,0.6544765,0.54691505,0.4695856,0.44081634,0.46290335,0.49639377,0.42667055,0.39236218,0.36359406,0.4331210999999999,0.48178469999999995,0.42247429999999997,0.38553166,0.37398237,0.24068849,0.6386592,0.37927926,1.0,1.0,0.66248536,0.65681,0.6777104,cluster2_pred,,2
0.6585149,0.8210259,0.83602446,0.8294275,0.83670515,0.8386377,0.040392265,0.7971785,0.77879494,0.8147579,0.8304109000000001,0.8087807,0.9707899999999999,1.0,0.8998708000000001,0.8989331,0.86448026,0.7963828000000001,0.7380324,0.5794779999999999,0.41594872,0.94623065,0.74541754,0.9502193999999999,0.9683195,0.93649524,0.5998533,3.0,0.0,0.62584245,0.66365325,0.7302424,cluster2_pred,,1
0.67800796,0.47627273,0.4786715999999999,0.4773617,0.4765584,0.43109965,0.020104499999999997,0.6538998,0.6824649,0.6397964,0.6384046,0.5185657,0.5040385000000001,0.48940834,0.5049864000000001,0.49345016,0.50374,0.49692026,0.4988348,0.5757156999999999,0.61145324,0.47953942,0.5109904000000001,0.31319055,0.18202056,0.71908426,0.34069687,1.0,2.0,0.65052205,0.6559166,0.6457248,cluster1_pred,2.0,3
0.7002429,0.7185355999999999,0.7135971999999999,0.71046144,0.708947,0.6862588000000001,0.032075177999999996,0.6259633000000001,0.72406197,0.6722354,0.6967709,0.61203223,0.44054297,0.63390905,0.6329117,0.5948124,0.560949,0.7152231,0.68528783,0.6298203,0.63236624,0.56734055,0.59361196,0.44473140000000005,0.27288738,0.83113605,0.62632924,1.0,2.0,0.6389656,0.65895367,0.66274357,cluster2_pred,,3
0.69459826,0.61786866,0.62375283,0.6201015000000001,0.6187533000000001,0.5871754,0.078522965,0.6568987,0.5071829999999999,0.52137285,0.5560048000000001,0.49506542,0.6151781,0.5389983,0.5732983,0.6415630999999999,0.48100105,0.6711602,0.59572977,0.22557220000000003,0.1109825,0.76517737,0.34667596,0.33533546,0.5511193,0.7180214,0.6820778000000001,1.0,2.0,0.6593427,0.6366405,0.6777745,cluster2_pred,,1
0.65133774,0.804616,0.8143345999999999,0.8110655,0.811308,0.8107923,0.04500897,0.730495,0.75927985,0.8274236999999999,0.88938403,0.8962618,0.9022684999999999,0.58893406,0.6715793000000001,0.6619566,0.63777417,0.7992263000000001,0.73535264,0.64014804,0.60822994,0.6498782,0.7179,0.9430296,0.78577316,0.90938586,0.5665024999999999,3.0,0.0,0.6300015,0.6678002,0.6383392,cluster1_pred,2.0,2
0.60627985,0.74156713,0.73885375,0.7334622,0.7291295,0.718681,0.059194416,0.57937425,0.6194022,0.5218600999999999,0.54566735,0.48944798,0.5728061,0.40807217,0.43398064,0.39563844,0.24366042,0.7930239,0.7927389,0.343204,0.3522676,0.49815512,0.32784972,0.38119048,0.4559061,0.78089315,0.74648297,2.0,2.0,0.637439,0.6515076,0.620753,cluster1_pred,2.0,1
0.6607649999999999,0.26313516,0.26697835,0.26653782,0.2713534,0.24495836,0.059104733,0.7014223,0.6523529,0.6655462,0.6580803000000001,0.6210951,0.60521144,0.5247212,0.5318278000000001,0.51045316,0.5062619,0.27155942,0.28262463,0.6102156,0.6308683,0.5213084,0.6361667,0.6693366999999999,0.501091,0.37775698,0.19959895,3.0,1.0,0.6466155,0.657635,0.6628322,cluster2_pred,,2
0.5685011999999999,0.7386881999999999,0.73644376,0.713554,0.735696,0.7285853,0.08468767,0.6290017,0.6788888000000001,0.8191311,0.7358383000000001,0.6929814000000001,0.68847656,0.5885172,0.6364325,0.6629066,0.6475380999999999,0.73570186,0.6866893000000001,0.57671744,0.5238093,0.6870246999999999,0.63876605,0.8783556,0.69419616,0.8429648000000001,0.5477207,2.0,0.0,0.6381672,0.662605,0.67852503,cluster2_pred,,3
0.60413027,0.79780245,0.80170625,0.8005315,0.799044,0.790676,0.025766201000000002,0.7044244000000001,0.64687955,0.66950136,0.694448,0.62403387,0.67649555,0.6452951,0.6346524,0.62302166,0.5638831,0.7906163,0.7684108000000001,0.68042266,0.6638889,0.6214821999999999,0.70160985,0.73780715,0.8001509,0.8640936,0.41517437,2.0,0.0,0.63989943,0.66684073,0.6585116,cluster1_pred,2.0,2
0.6124928000000001,0.8274555,0.8362173,0.8354191999999999,0.8371879999999999,0.8390851999999999,0.025321688999999998,0.6997555,0.71822613,0.6883679,0.7297172,0.6694161,0.59062475,0.52768606,0.54410064,0.5407114000000001,0.6099665,0.8037711,0.8105956,0.70043653,0.6491169,0.7065953,0.699654,0.5656475999999999,0.40289977,0.94212407,0.53245497,2.0,0.0,0.64630467,0.67044646,0.638014,cluster1_pred,2.0,3
0.61057216,0.65913343,0.65614307,0.64097613,0.63468695,0.61668754,0.090949856,0.5314264,0.5563983,0.5267103,0.56132406,0.5536994000000001,0.564489,0.5555416,0.52346945,0.5234848,0.505706,0.6405981,0.6303236999999999,0.6045569000000001,0.5623984999999999,0.6671264,0.50052774,0.51944584,0.7621888000000001,0.81410956,0.43476397,2.0,0.0,0.66547227,0.6494856,0.67215824,cluster2_pred,,3
0.65479094,0.8423301,0.8406517,0.8350327,0.83004206,0.8023541000000001,0.033802543,0.5474199000000001,0.49979538,0.5554748,0.5767800000000001,0.55164367,0.5076305999999999,0.59756297,0.6642199000000001,0.65455794,0.6246269,0.81769866,0.80031586,0.8388671999999998,0.83682907,0.61740506,0.7039571,0.44497037,0.68953,0.85600036,0.46218163,3.0,0.0,0.6814379,0.6624571,0.68970406,cluster2_pred,,3
0.75855887,0.6048175,0.6037017,0.5836676,0.5928734,0.5672937,0.11487951,0.63320845,0.53014463,0.5624689,0.48481062,0.46443954,0.45633644,0.3946881,0.37865782,0.30280185,0.29253629999999997,0.67749536,0.63376707,0.24750033,0.27978325,0.42584473,0.17532742,0.29551357,0.24484085,0.73173374,0.6408928,1.0,2.0,0.64760005,0.6502425,0.6650828,cluster2_pred,,2
0.6739725000000001,0.2758985,0.27184653,0.27615368,0.273333,0.24654846,0.04343757400000001,0.6607649999999999,0.6827038000000001,0.65927523,0.6733884,0.6169051,0.62107855,0.561426,0.5507392,0.5296531,0.49463627,0.2732525,0.28116858,0.6119913,0.62573546,0.53779817,0.6557543,0.77448875,0.636154,0.37861264,0.19196542,3.0,1.0,0.64529294,0.65609527,0.65816975,cluster2_pred,,1
0.5555452,0.73225856,0.73384106,0.73491186,0.7385931,0.72004235,0.016575685,0.69599795,0.78670734,0.7540909,0.73845786,0.72155225,0.6642687,0.6170964,0.6499741,0.6411798000000001,0.6083436,0.72737056,0.6876639,0.53514075,0.45920312,0.7330538000000001,0.6762682,0.8532485999999999,0.7034153000000001,0.84395736,0.3388978,2.0,0.0,0.61959517,0.67066723,0.6624593,cluster1_pred,2.0,3
0.625821,0.1728324,0.16908470000000003,0.17603289,0.17058568,0.15603370000000003,0.04841301,0.65850985,0.67483294,0.68540746,0.66163194,0.61654425,0.59902525,0.5633335,0.5800568,0.57137114,0.53902596,0.16160426,0.15907684,0.6050517,0.5910508000000001,0.6013735,0.74457693,0.79846257,0.5962814000000001,0.28460159999999995,0.07701016,2.0,1.0,0.6423438,0.65507925,0.68474734,cluster2_pred,,1
0.64682454,0.13838108,0.13307948,0.14129017,0.13558012,0.10720807,0.06507838,0.65275764,0.6484492,0.66685885,0.6625359000000001,0.6247026999999999,0.6210656,0.5724613000000001,0.59604174,0.57551706,0.57872456,0.118488304,0.12329859,0.6302091,0.60228735,0.638662,0.84280235,0.90316373,0.90224504,0.24032919,0.06536501,3.0,1.0,0.6440845,0.65519714,0.6918078,cluster2_pred,,3
0.6257716,0.7158486,0.7108979999999999,0.7112345999999999,0.7127131,0.6967481,0.02210481,0.6391207,0.6573154,0.6013813,0.6183793000000001,0.59134626,0.5817163000000001,0.5228139,0.55773026,0.54969764,0.53018427,0.72712195,0.6944994000000001,0.4805121,0.42320740000000007,0.6791994,0.47238909999999995,0.4328094,0.5404259,0.8349968000000001,0.2787597,2.0,2.0,0.65422845,0.65884113,0.6496328,cluster1_pred,2.0,2
0.6388585,0.028117675,0.02718465,0.028074421000000002,0.027569905,0.020829841,0.1541293,0.67387605,0.6147661999999999,0.6002878,0.62639654,0.5663709,0.6145198000000001,0.54849976,0.54358476,0.5208515,0.4587075,0.046571963,0.04314204,0.5066684,0.5233348,0.5111417,0.43785816,0.44970116,0.6413916000000001,0.11740121,0.16920233,3.0,1.0,0.6637052,0.6497212,0.718536,cluster2_pred,,1
0.64654565,0.8230890999999999,0.82301056,0.80768305,0.80995613,0.73915595,0.06668486400000001,0.58865684,0.67600393,0.65515363,0.65561944,0.62172216,0.59940845,0.4972397,0.6194706,0.6291031,0.5972546999999999,0.8284603000000001,0.7694489000000001,0.6665484,0.70336527,0.49411109999999997,0.5986479,0.493705,0.4926151,0.7536794,0.71077466,3.0,0.0,0.65047556,0.6529554,0.6478633,cluster1_pred,2.0,1
0.48200590000000004,0.67496765,0.6795682,0.66475,0.6800734,0.68182284,0.10536146,0.58937967,0.5886534999999999,0.7066428000000001,0.7410937,0.68912774,0.7681584,0.7396077,0.7012682,0.5767085999999999,0.59257406,0.7641140000000001,0.6266322,0.16770631,0.11664283,0.6057312,0.3647528,0.89049137,0.86515796,0.8534252,0.82112116,2.0,0.0,0.65689045,0.63628274,0.7159928,cluster2_pred,,1
0.65655476,0.108919926,0.10647321,0.11147622,0.11056926,0.08879799,0.10602823,0.6776762,0.66894346,0.63851106,0.6337779,0.5857763,0.5886955,0.5326809,0.5660430000000001,0.5496428000000001,0.53108156,0.1150896,0.094129995,0.5618375,0.567218,0.54791707,0.6027982,0.7351267,0.634202,0.2228035,0.057652287,3.0,1.0,0.65357953,0.656446,0.7024308,cluster2_pred,,2
0.6835498000000001,0.17264047,0.1701451,0.17221554,0.16749553,0.13496177,0.10917102,0.6475041,0.61058855,0.71602446,0.73324203,0.68285483,0.68790036,0.63414294,0.65077573,0.6367643,0.6309001000000001,0.13916810000000002,0.13829377,0.6559618,0.59756374,0.7147776,0.8480693000000001,0.8602948,0.90460527,0.23352826,0.16774368,1.0,1.0,0.64521503,0.64753693,0.71363485,cluster2_pred,,2
0.63839465,0.7113383000000001,0.7078131999999999,0.71210444,0.71174747,0.64338356,0.018622788,0.6780254,0.6146758000000001,0.5769291,0.6217772,0.5618986999999999,0.52891284,0.5947633000000001,0.6352903,0.5958958000000001,0.59805936,0.71501875,0.68516654,0.66686016,0.6612467,0.59339255,0.6380889,0.17533313,0.32413512,0.73266006,0.30765763,3.0,2.0,0.6595832,0.65556294,0.6719443,cluster2_pred,,3
0.67549837,0.59627664,0.59907454,0.6030926,0.59765345,0.5366783,0.023496842,0.6612070999999999,0.64884144,0.6718699,0.62031454,0.5736821999999999,0.56139797,0.50381047,0.540285,0.56707895,0.5505696,0.6042519000000001,0.5779446,0.7013311,0.74167466,0.4924104,0.67926085,0.48309806,0.35771126,0.75719374,0.2868115,1.0,2.0,0.6460373,0.6587931,0.6489076,cluster1_pred,2.0,1
0.5619649999999999,0.7676695,0.7638213,0.76603043,0.7632175999999999,0.72345537,0.034469314,0.5824461999999999,0.54243696,0.6960504,0.6787555999999999,0.64850825,0.618524,0.57446617,0.6018642,0.56153375,0.57105726,0.76816857,0.74261737,0.5519785,0.48706675,0.71043915,0.5507408,0.74344903,0.7455359,0.8068418,0.44914982,2.0,0.0,0.6417621,0.6615848,0.66431445,cluster2_pred,,3
0.57235575,0.8053836,0.81067145,0.80004835,0.7941191,0.77763295,0.0917687,0.48228085,0.36582002,0.39156562,0.48386440000000003,0.44599456,0.44908014,0.38725254,0.41280434,0.4138585,0.45528552,0.8489419,0.78889287,0.4908862,0.47714418,0.5792811,0.34997743,0.31118086,0.5548184,0.8007658000000001,0.72381896,2.0,2.0,0.66412395,0.6438639,0.65125304,cluster0_pred,3.0,3
0.698525,0.7969388000000001,0.7965007,0.7926069,0.7915118,0.78378445,0.036820557000000004,0.60413027,0.6354429,0.60855126,0.6351613,0.61144954,0.5826819000000001,0.5880205,0.63030875,0.5987625,0.57197607,0.79210645,0.77336866,0.67665815,0.6661262,0.6067384,0.6350686,0.55020374,0.6942916,0.86287314,0.41926947,1.0,0.0,0.6588278,0.6598753,0.66225916,cluster2_pred,,3
0.8503778000000001,0.7794732,0.816841,0.7788838,0.8121771,0.78627425,0.06424784,0.73314255,0.6972074,0.68195236,0.66641015,0.62165654,0.6558013,0.60056865,0.60687906,0.57609385,0.56275046,0.7928531999999999,0.7686328,0.76512134,0.7720603,0.5825326999999999,0.8667530999999999,0.58598065,0.59704137,0.8599440999999999,0.40152013,1.0,0.0,0.6501966,0.66851866,0.6626196,cluster1_pred,2.0,2
0.72439104,0.5832254,0.5922301999999999,0.5811549,0.58920383,0.57290965,0.15467129999999998,0.53478444,0.56978667,0.5621742,0.57512605,0.51601523,0.5153786,0.47706524,0.5158604,0.5132306,0.47797745,0.68118745,0.639836,0.17806084,0.14941886,0.5552476,0.16011627,0.49274650000000003,0.45880255,0.7958246999999999,0.5296903000000001,1.0,2.0,0.6740808,0.6458175,0.6955261,cluster2_pred,,1
0.67241603,0.120675586,0.11702896,0.11094469,0.10767225,0.10263271,0.116922714,0.59460145,0.52586025,0.5360585,0.53183717,0.51820856,0.52590567,0.42006190000000004,0.46986318,0.46612936,0.44135028,0.12336338,0.14582041,0.64805233,0.700367,0.45438853,0.45864213,0.25927216,0.42578253,0.25027302,0.30909032,3.0,1.0,0.6775879,0.6484356,0.68932945,cluster2_pred,,2
0.43643668,0.77822566,0.7770279999999999,0.7726021,0.7715224,0.7825456999999999,0.008983857,0.61412877,0.61758417,0.5549029000000001,0.6041713000000001,0.604003,0.5701111999999999,0.41190422,0.45714736,0.34324396,0.2903696,0.8430095999999999,0.792603,0.33610854,0.35189667,0.4810945,0.34378302,0.35415593,0.37274432,0.9485034,0.6934361,2.0,2.0,0.6384245,0.6518411,0.6118369,cluster1_pred,2.0,1
0.6350569,0.79933786,0.7947655,0.7948297,0.7960503999999999,0.77175885,0.04494658,0.6130041,0.60821885,0.6463511,0.65954906,0.6528205,0.74385786,0.67043483,0.71301323,0.6881861,0.6423576,0.765864,0.77629375,0.78770494,0.7376778,0.7199976,0.83291966,0.78655404,0.88049185,0.8534436,0.34384185,3.0,0.0,0.64315635,0.67105937,0.6847881,cluster2_pred,,2
0.72326773,0.7899333000000001,0.79572946,0.7910607,0.7989475,0.7514354,0.019476721000000002,0.72156733,0.68360794,0.73514575,0.6676926999999999,0.64576566,0.6063748999999999,0.52183664,0.5978383,0.5755765,0.6001890999999999,0.7739775999999999,0.7651598000000001,0.89524305,0.9544435,0.48481,0.7963766,0.6879689,0.51476556,0.7905069,0.5175310000000001,1.0,0.0,0.65406936,0.67393655,0.6421193,cluster1_pred,2.0,1
0.8850380999999999,0.7186315999999999,0.7437701999999999,0.72418463,0.74911886,0.75745165,0.049754348,0.8372235999999998,0.65660506,0.6574946,0.6435974,0.5841270000000001,0.617219,0.5009952999999999,0.50265545,0.54033923,0.36775008,0.81805694,0.77613497,0.26755348,0.28069970000000005,0.4743698,0.37807490000000005,0.44332206,0.3795735,0.91013753,0.57357144,1.0,2.0,0.6372826,0.6561596,0.6504699,cluster1_pred,2.0,3
0.66477704,0.6077924,0.61083525,0.6110171999999999,0.60822755,0.5779903000000001,0.07209701,0.5786876999999999,0.5349488,0.5790486,0.59134305,0.43670782,0.43376729999999997,0.42210169999999997,0.43656442,0.5346430999999999,0.48871955,0.6575645999999999,0.6022261999999999,0.25710344,0.16340186,0.72226524,0.31917736,0.23368417,0.21578963,0.71363837,0.62998015,3.0,2.0,0.666917,0.64880526,0.6576424,cluster0_pred,3.0,3
0.60905457,0.16645074,0.15978214,0.1562213,0.15301047,0.12416511,0.085026905,0.6013651999999999,0.57374185,0.58898413,0.6050386999999999,0.54975337,0.5520527,0.48856914,0.51142013,0.52327895,0.52707124,0.16846783,0.14895332,0.57987744,0.5914107,0.53692424,0.45355642,0.53251004,0.58666795,0.23771437,0.14242056,2.0,1.0,0.66638196,0.648324,0.68483335,cluster2_pred,,2
0.6679341999999999,0.06420038,0.06314165,0.06644119,0.06561731,0.05207817,0.09532869999999999,0.69133824,0.6469315,0.65121776,0.6506963000000001,0.5976135,0.5961929,0.5444315,0.5840246,0.56684566,0.5428446,0.05390602,0.06241953,0.6221642,0.6185,0.5804220999999999,0.7566553,0.5692575,0.54466826,0.10928208,0.05849683,3.0,1.0,0.6437546,0.6510216,0.7050626,cluster2_pred,,3
0.77075386,0.807207,0.80565864,0.7805267,0.7734538000000001,0.7551496,0.06736723,0.42699778,0.4402537,0.54954696,0.40306827,0.26909775,0.2170973,0.22451945,0.21596354,0.13338298,0.15644404,0.8687729,0.8565243,0.40568545,0.5046172000000001,0.2997593,0.25755805,0.3369335,0.2653458,0.799366,0.80092996,1.0,2.0,0.63073313,0.6593133,0.68601686,cluster2_pred,,3
0.5873845,0.71450514,0.7239119,0.70408314,0.72777754,0.70307434,0.08585355,0.712334,0.72710687,0.6996558,0.79505366,0.7052106,0.72152954,0.6264562,0.50288004,0.71068543,0.6733164,0.71724725,0.68986857,0.6577518,0.63730043,0.6263765,0.68106735,0.83926994,0.66439617,0.84398854,0.64721614,2.0,0.0,0.64358044,0.66154534,0.65395063,cluster1_pred,2.0,1
0.6143419,0.16592294,0.16142091,0.16651367,0.16102557,0.13013916,0.060804803,0.6217899,0.59470606,0.5837458000000001,0.5846172,0.53702646,0.5275122,0.5072317,0.5260188,0.50636077,0.5639276,0.14840859,0.18501739,0.6739310000000001,0.6665175999999999,0.59893245,0.6445057,0.1319535,0.25938160000000005,0.22321299,0.14801243,2.0,1.0,0.65267366,0.6416749,0.7041201,cluster2_pred,,3
0.60494643,0.9866609000000001,0.9978792,0.99110895,1.0,1.0,0.027692427999999998,0.73753554,0.696673,0.666492,0.6860033,0.6993974000000001,0.7802239000000001,0.7543053000000001,0.7419355,0.7235866,0.68815255,0.9779542999999999,0.9428291999999999,0.78402185,0.75576586,0.6683929,0.81811666,0.73896265,0.77959794,0.99794537,0.5068879,2.0,0.0,0.6573317,0.67735946,0.6807554,cluster2_pred,,3
0.6917201,0.13367884,0.1322119,0.13718292,0.13326253,0.10944566,0.10704983,0.6566361,0.6203289000000001,0.63979995,0.66825247,0.6086153,0.5920188,0.49494573,0.5261668,0.5285189,0.52782047,0.13185094,0.14377,0.59971267,0.6046484000000001,0.5560856,0.62400687,0.7552867,0.6447281,0.24137191,0.103174075,1.0,1.0,0.65883523,0.6567464,0.68915373,cluster2_pred,,3
0.67966604,0.6860036,0.6886296,0.6911815,0.6861088000000001,0.621648,0.013795523999999998,0.6362078,0.5857739000000001,0.60494554,0.5692673,0.5166629,0.5235294,0.48526412,0.53666764,0.5158613000000001,0.52989584,0.6924533,0.70014685,0.66631573,0.67746323,0.5540948,0.59167916,0.27220459999999996,0.3290824,0.73900735,0.28095162,1.0,2.0,0.66513103,0.65798694,0.65239626,cluster0_pred,3.0,1
0.6706428000000001,0.6241544,0.62052345,0.6181203000000001,0.61373186,0.55012876,0.046517975999999996,0.59917307,0.5944168000000001,0.58196706,0.61274135,0.57765085,0.5643498,0.527026,0.5808343,0.55397296,0.553764,0.6188661999999999,0.5994648,0.64342284,0.63150203,0.60373104,0.5976100000000001,0.48636409999999997,0.6776326,0.7635048000000001,0.25998083,3.0,0.0,0.6547211,0.65559125,0.6638231,cluster2_pred,,3
0.6810618,0.16030902,0.15607074,0.16269632,0.15779054,0.14597705,0.036301956,0.65825605,0.6315135000000001,0.68049836,0.68185335,0.61020726,0.5862708999999999,0.5351246000000001,0.57601345,0.5413753000000001,0.5188032,0.15680176,0.14830957,0.5876771,0.5849441999999999,0.5717535,0.6558672,0.8286823,0.5945291,0.26971367,0.09462164,1.0,1.0,0.6499981,0.65635186,0.677311,cluster2_pred,,3
0.6496075,0.56705534,0.5696727,0.5691713,0.56409645,0.50860614,0.061069954,0.6601260999999999,0.5064809,0.46681154,0.5128967000000001,0.47984633,0.45831126,0.45196718,0.38768843,0.37216195,0.30186906,0.6338708000000001,0.6202633000000001,0.4159326,0.47866863,0.3863311,0.25017992,0.13405497,0.3388947,0.7279523,0.45335767,3.0,2.0,0.6545749,0.6458246,0.6385917,cluster0_pred,3.0,2
0.78743887,0.5500216,0.5552128000000001,0.55515826,0.5551156999999999,0.5316436999999999,0.09968806,0.7480526999999999,0.785837,0.59903175,0.61421144,0.48968506,0.41406745,0.31831479999999995,0.35749447,0.30152276,0.2575353,0.6342868,0.61898977,0.11228776,0.11976011,0.45841554,0.27788675,0.27471706,0.14512801,0.7029215999999999,0.67333275,1.0,2.0,0.6367027,0.6662929,0.6770897,cluster2_pred,,2
0.6607353,0.6607168999999999,0.6690124,0.6627205,0.6612911,0.59516096,0.03325275,0.65313375,0.64562756,0.714224,0.7632669,0.7393658000000001,0.7131909000000001,0.6071397,0.61670566,0.5769054,0.5609487,0.67344165,0.61792594,0.58914405,0.580617,0.585579,0.65911466,0.8966450999999999,0.8385229,0.7363983000000001,0.41518012,3.0,0.0,0.6299762,0.6603351,0.6483426,cluster1_pred,2.0,2
0.6364308000000001,0.43687928,0.44020823,0.43971974,0.44358072,0.39424044,0.06509397,0.7503798,0.79272467,0.73797625,0.7341915,0.72541046,0.6786840000000001,0.65269136,0.6684734,0.6823115,0.6922314,0.38243842,0.40324035,0.7682529,0.7001483000000001,0.75861055,0.83265316,0.6997787,0.61104435,0.7034543000000001,0.36092097,3.0,0.0,0.64526284,0.663951,0.69036585,cluster2_pred,,1
0.59444624,0.77390724,0.77220803,0.74447936,0.73897934,0.73987013,0.042337988,0.42319470000000003,0.49240002,0.5453314,0.5918285,0.62334424,0.5489997,0.5065962,0.5444926,0.5702301,0.48059684,0.7579409,0.7212403000000001,0.64931214,0.62810826,0.6265478,0.5088205,0.69333273,0.8017008000000001,0.85584414,0.7736529000000001,2.0,0.0,0.65725636,0.65086514,0.64633507,cluster0_pred,3.0,1
0.3965769,0.73667294,0.7350941999999999,0.7323025,0.72517025,0.6933354,0.026148327000000002,0.56847864,0.5114087,0.5483449,0.6029767,0.55844283,0.49288288,0.44306004,0.53163105,0.48725668,0.4776214,0.7432423,0.7483191,0.57675904,0.5565694999999999,0.6105205,0.45962829999999993,0.50164783,0.6169717,0.8219293,0.33771965,2.0,2.0,0.66352624,0.6564531,0.64158,cluster0_pred,3.0,3
0.6220558,0.81958646,0.82339615,0.8197633,0.82521373,0.8279860000000001,0.030601262999999997,0.7087213000000001,0.6666122,0.58561695,0.57646877,0.5243366999999999,0.5234858,0.5772001,0.6086533000000001,0.6382733,0.6397781,0.795053,0.80136955,0.68674076,0.60801643,0.768103,0.6499678000000001,0.15930709,0.32158673,0.9353388000000001,0.530576,2.0,2.0,0.67760247,0.66091657,0.67449033,cluster0_pred,3.0,3
0.6290017,0.7346577,0.7406854,0.7355884,0.73917246,0.7317521,0.098568976,0.7288562,0.85487086,0.7593968000000001,0.7579735,0.7124238,0.65891343,0.6356568,0.68256956,0.68303365,0.69038516,0.7359097,0.6843239999999999,0.5571778000000001,0.51298887,0.66295755,0.664333,0.6534568000000001,0.54757273,0.8367239,0.49567285,3.0,0.0,0.6235218,0.663618,0.67656076,cluster2_pred,,1
0.62019044,0.68859464,0.68650883,0.6847548000000001,0.6877988,0.6849538000000001,0.06622085,0.67305493,0.52619773,0.5778239000000001,0.57611847,0.52188903,0.4211242,0.39425927,0.43998876,0.4630978,0.45783925,0.74583346,0.72171295,0.32167974,0.29971096,0.566673,0.31524709999999995,0.27657655,0.26188904,0.7823831,0.6044031999999999,2.0,2.0,0.64761746,0.651185,0.6425899,cluster1_pred,2.0,1
0.53861415,0.749916,0.74656576,0.7513409000000001,0.7455459,0.7223046,0.008890275,0.61720717,0.6429323,0.6262187,0.61288434,0.56410426,0.5323688,0.42521808,0.47355315,0.48862657,0.45648098,0.7723608000000001,0.7925156,0.60200286,0.64994556,0.45594528,0.49830034,0.4707002,0.33351105,0.8487616,0.36636397,2.0,2.0,0.65020686,0.6609435,0.61871815,cluster1_pred,2.0,1
0.51668733,0.6429154,0.63763434,0.6356608,0.6318381999999999,0.5809496,0.022132106000000002,0.6341859999999999,0.63058925,0.6307716,0.5204495,0.41703442,0.43124712,0.41872200000000004,0.39086533,0.41866976,0.37214684,0.6986111999999999,0.66164994,0.35443506,0.39181525,0.43405095,0.20404194,0.28657135,0.21654603,0.70076895,0.3628393,2.0,2.0,0.6512047,0.66103476,0.6376586,cluster1_pred,2.0,2
0.5864479,0.054076105,0.048826322000000005,0.054989132999999996,0.052484185,0.034695946,0.09907978,0.67077565,0.6289635,0.6534337,0.6705338000000001,0.59214574,0.57553154,0.54318434,0.55839115,0.5511368000000001,0.53169745,0.04303843,0.047198500000000004,0.623293,0.62407184,0.57024443,0.72445226,0.6586046999999999,0.5267512,0.12696767,0.050894648,2.0,1.0,0.65233773,0.6553903,0.7060191,cluster2_pred,,3
0.6430524999999999,0.20032631,0.19728154,0.1994685,0.19738305,0.17709549,0.14221321,0.65749574,0.69113296,0.6888841,0.7138715999999999,0.6866270000000001,0.65780276,0.63877344,0.6904604999999999,0.64999163,0.59542626,0.17439581,0.16132781,0.64668596,0.6058249,0.67202175,0.7725093000000001,0.8848173,0.910223,0.26636443,0.21298961,3.0,1.0,0.64596444,0.6472855,0.71542907,cluster2_pred,,3
0.718774,0.25646564,0.25280762,0.25136507,0.25459899999999996,0.23150054,0.08920689999999999,0.653772,0.7278876999999999,0.73243064,0.69137573,0.6713839,0.6401571999999999,0.599304,0.6071538000000001,0.6032249,0.5834385,0.24637297,0.22875877,0.58640885,0.5625009,0.62103236,0.6805153,0.79834443,0.6220581000000001,0.37100217,0.22056109,1.0,1.0,0.6428478,0.65028596,0.69453686,cluster2_pred,,2
0.60554945,0.18074949999999998,0.17409748,0.17153904,0.17029598,0.1558059,0.15472199,0.5994669,0.62548417,0.62834555,0.64852446,0.5816891,0.58035624,0.5613648,0.58969706,0.5631619000000001,0.5440805000000001,0.16538973,0.18496974,0.6176276999999999,0.60174125,0.6081496999999999,0.6355373000000001,0.7280729,0.7774394,0.29251176,0.117447235,2.0,1.0,0.66006,0.6517007,0.7108351,cluster2_pred,,1
0.67216843,0.7737153,0.77249724,0.7438996,0.7385931,0.7436746999999999,0.083369724,0.2960212,0.41156125,0.42631444,0.44432744,0.43658808,0.44555950000000005,0.34934145,0.38450933,0.36790900000000004,0.40733847,0.7993772,0.79838824,0.61101955,0.66697586,0.4389027,0.3517537,0.48345587,0.59061825,0.8973219000000001,0.6054517,3.0,2.0,0.6688944,0.64996207,0.64452684,cluster0_pred,3.0,1
0.6533126,0.41308,0.414325,0.41493118,0.41818362,0.37346226,0.028877798,0.7052743,0.63072056,0.67197895,0.67493993,0.65013105,0.67983747,0.6368147,0.7840411,0.74377054,0.77264607,0.37361935,0.38205728,0.7173454,0.6291846999999999,0.79592997,0.7613413,0.6891904999999999,0.79231066,0.6955714,0.3552729,3.0,0.0,0.650006,0.6522007,0.70817834,cluster2_pred,,3
0.72553366,0.6125906,0.62838,0.61314327,0.6322727,0.6049182,0.017289246,0.6960590999999999,0.5762185000000001,0.630838,0.673138,0.6111593000000001,0.67542195,0.6840921,0.78230315,0.7045169,0.6945423000000001,0.6248138000000001,0.58229035,0.5513456999999999,0.45640448,0.78054345,0.57184076,0.5660722,0.72850806,0.74069315,0.7679981,1.0,0.0,0.6456153,0.6437296,0.69226605,cluster2_pred,,3
0.6963897,0.77270764,0.7772208,0.778159,0.7768335999999999,0.71594495,0.029376902000000003,0.61783296,0.52531165,0.5132101,0.47194433,0.4830195,0.40590190000000004,0.42062002,0.39731246,0.42413104,0.37054345,0.853107,0.8101911999999999,0.4044949,0.45065433,0.42294259999999995,0.29834658,0.12076722,0.2453319,0.76035196,0.53233445,1.0,2.0,0.64986026,0.650142,0.6414093,cluster1_pred,2.0,2
0.56682426,0.7830239,0.78637874,0.78410244,0.79064274,0.744135,0.01716837,0.68699217,0.62267,0.5814293,0.6563856,0.590313,0.6377982,0.62638897,0.65627396,0.642674,0.5955948,0.7523072,0.7556411,0.9630015,0.9965584000000001,0.5575296999999999,0.8199529000000001,0.5858793999999999,0.725601,0.7910978,0.5449946999999999,2.0,0.0,0.67196935,0.66919065,0.659662,cluster0_pred,3.0,2
0.56100357,0.8467445,0.8480744,0.8520416,0.8494520000000001,0.8238207000000001,0.04267722,0.68510556,0.7082571,0.6261994000000001,0.60799456,0.55066556,0.6051149,0.52731884,0.55347973,0.5878543,0.55275893,0.8562572,0.8600658000000001,0.61417687,0.60457414,0.59280586,0.6228665,0.40026849999999997,0.35707712,0.823607,0.31241712,2.0,2.0,0.6619424,0.66757286,0.65434355,cluster1_pred,2.0,3
0.73788774,0.4498345,0.44536555,0.44600147,0.44816765,0.4028511,0.032410514,0.67168427,0.71344703,0.7176085999999999,0.7257798000000001,0.7161888000000001,0.6568208999999999,0.6008621,0.6355079,0.6473504,0.588212,0.45726009999999995,0.4080397,0.5040491,0.47429672,0.6191985,0.5887796,0.9301228000000001,0.82365197,0.70810044,0.42400783,1.0,0.0,0.6525767,0.6444495,0.6650993,cluster2_pred,,2
0.7076979,0.11779665,0.112787396,0.11311911,0.10680315,0.09799265,0.08053498,0.6039583000000001,0.60313445,0.66543114,0.6990199,0.61551064,0.65986454,0.57315236,0.6210656,0.6122529000000001,0.61375934,0.07147719999999999,0.09018782,0.68642247,0.6228514,0.73260754,0.68862575,0.8652226999999999,0.8757683,0.24642287,0.29774716,1.0,1.0,0.673652,0.64381105,0.7035226,cluster2_pred,,1
0.70053613,0.08257763,0.08034895,0.082918584,0.08333735,0.08001507,0.07247914,0.6479241,0.65994155,0.65307045,0.70814466,0.6547536999999999,0.66382754,0.63997346,0.6836641999999999,0.6467229,0.5983595,0.06771667,0.04503527,0.56331235,0.49522185,0.7200055999999999,0.6424416000000001,0.90356433,0.9300693999999999,0.23081733,0.30560517,1.0,1.0,0.6612059,0.63560814,0.70839053,cluster2_pred,,1
0.6460688,0.8237129000000001,0.82156456,0.8276879,0.8221235,0.7991271,0.016462605,0.67695,0.70569026,0.6910949000000001,0.71562475,0.6252363000000001,0.60894036,0.55333763,0.55491,0.52687114,0.4964862,0.85140026,0.8275324000000001,0.5744735,0.61367565,0.47120368,0.5958427,0.5822096,0.43215623,0.8526391,0.28871277,3.0,0.0,0.6363127,0.6656629,0.63824505,cluster1_pred,2.0,1
0.6360927,0.014346728999999999,0.0070853676,0.013094965,0.0080150645,0.003428889,0.051275052,0.6408531,0.62736505,0.6333075,0.6606513,0.62901837,0.6233028,0.5775244,0.6023527,0.6151741999999999,0.5836494000000001,0.0004537787,0.0009759092,0.5431423000000001,0.48406234,0.69513845,0.6503424,0.84125125,0.9306790999999999,0.0016240374,0.07807356,3.0,1.0,0.6506704,0.64472675,0.69908965,cluster2_pred,,2
0.69180906,0.7891656,0.7874391,0.7918338,0.78475213,0.7862806,0.015842626000000002,0.59955794,0.629738,0.6929204000000001,0.72886443,0.7235809,0.69854015,0.7083126000000001,0.69538933,0.6994329,0.78390414,0.7508706,0.74179983,0.8078713000000001,0.7561777,0.7276899,0.7891961999999999,0.86709094,0.88170606,0.8911541999999999,0.5073974,1.0,0.0,0.64581937,0.6700982,0.6793824,cluster2_pred,,3
0.5824461999999999,0.77189195,0.7698944000000001,0.7732786,0.77470917,0.7335944000000001,0.09037277,0.6205633,0.76151764,0.734621,0.74769825,0.6761274,0.6770361999999999,0.62932944,0.61128986,0.63561314,0.5912763000000001,0.7684019,0.7393932,0.54638284,0.4737431,0.7274576,0.63725525,0.7631492,0.68644214,0.80748653,0.4494293,2.0,0.0,0.63103956,0.6657024,0.6708669,cluster2_pred,,3
0.652864,0.07490046,0.075625405,0.07687847,0.077591635,0.075613216,0.114029475,0.67460036,0.71827275,0.73620224,0.7154457,0.6798266,0.7112121,0.6495653,0.63940555,0.5570082,0.5361451,0.085317336,0.04685708,0.36372793,0.28432944,0.70888543,0.50037694,0.9559549999999999,0.8467453000000001,0.19336241,0.30939972,3.0,1.0,0.6640297,0.6388551,0.71985894,cluster2_pred,,2
0.7013501,0.6221871,0.6224996,0.61604255,0.6102555000000001,0.57976,0.07720112,0.58318925,0.6648558000000001,0.7770553000000001,0.8690760000000001,0.89114934,0.94023776,0.7123404999999999,0.7300587,0.6601427,0.5788781,0.6250591,0.5140604,0.32045972,0.1776726,0.8489754999999999,0.51959825,0.9517625,0.95402277,0.72214216,0.82404095,1.0,0.0,0.6785692,0.62925744,0.6759444,cluster0_pred,3.0,3
0.663913,0.6361979,0.6364776,0.6394298,0.639129,0.6206385,0.040797785,0.65244085,0.6685956000000001,0.6641944000000001,0.5943781,0.6309014000000001,0.64355767,0.5681618,0.60793716,0.5581451,0.5772228,0.6564228,0.6159343,0.5294566999999999,0.5049448000000001,0.61172557,0.5421333,0.5157685000000001,0.5021339,0.80050075,0.3536897,3.0,0.0,0.64103186,0.6563418,0.66177845,cluster2_pred,,3
0.6054076,0.5676312,0.5758905,0.56777,0.57800204,0.51539695,0.056437653,0.7441833999999999,0.73085845,0.75072193,0.90684044,0.8713095,0.84875846,0.7598988,0.80041915,0.8332848,0.80556923,0.52694464,0.49388555,0.74490833,0.65946037,0.79477406,0.88340414,0.9629974,0.92842054,0.7509942,0.42864597,2.0,0.0,0.62728345,0.65514535,0.6970859,cluster2_pred,,1
0.65419227,0.75615376,0.7531209,0.7540469,0.74979484,0.72611266,0.060177024,0.6195191,0.6021934,0.5086788,0.5757342,0.64614445,0.63311607,0.5508885,0.58073694,0.5716137,0.55786866,0.7679187,0.7263014,0.5792361,0.5534468000000001,0.6240817,0.53266644,0.46801620000000005,0.6307799,0.8494603000000001,0.39925268,3.0,0.0,0.6609503,0.65339595,0.6554363,cluster0_pred,3.0,3
0.63556635,0.8383955,0.8356389000000001,0.82507855,0.81864715,0.75833553,0.024370272000000002,0.4802329000000001,0.4917793,0.49322024,0.4945192,0.45122576,0.48046753,0.42536270000000004,0.4892451,0.5032139,0.50070006,0.84646046,0.85055554,0.6428636999999999,0.6523772,0.553502,0.42986664,0.28549173,0.47908065,0.7872477,0.33842537,3.0,2.0,0.6855679,0.6556553,0.65295,cluster0_pred,3.0,1
0.6309939999999999,0.80711097,0.8027666999999999,0.8088426999999999,0.8043551999999999,0.7792339,0.02463932,0.65595144,0.6839098000000001,0.6810153,0.66855437,0.5922006,0.59526324,0.5746504,0.6011811,0.6292469,0.69156975,0.7794361,0.8063286,0.7858364000000001,0.76934385,0.6412257,0.86255,0.60031986,0.4504835,0.8577991,0.30688196,3.0,0.0,0.6503151,0.6741674,0.6661364,cluster1_pred,2.0,2
0.6728487,0.084304996,0.08005977,0.08330516,0.07850900000000001,0.061436567000000004,0.09751228,0.6494454000000001,0.6296081,0.6266616999999999,0.6207783,0.57144624,0.57946265,0.52807295,0.53605586,0.55197275,0.5133693,0.075583465,0.08994791,0.6170435999999999,0.6250321,0.55220854,0.68733966,0.37745124,0.41691673,0.13492198,0.06649374,3.0,1.0,0.64693666,0.64558315,0.7003226,cluster2_pred,,2
0.6455036999999999,0.79981774,0.7993927,0.8045905,0.7991406,0.7745401999999999,0.04717305,0.63795966,0.6005468,0.6079393,0.6552595999999999,0.6075685000000001,0.58891255,0.5160532999999999,0.54490846,0.56416065,0.5515331,0.7861201,0.8057316999999999,0.7716710999999999,0.7739166000000001,0.59474105,0.78927654,0.67203534,0.6664321,0.8535485,0.29255792,3.0,0.0,0.6563986,0.6720499,0.65189457,cluster1_pred,2.0,1
0.68450046,0.9924188,0.9919024999999999,0.9982605,0.9918884,0.99241835,0.004191687,0.6266429,0.6047967,0.59839195,0.6276655,0.6027566999999999,0.5973463999999999,0.5776102,0.5407443000000001,0.5264585999999999,0.51305187,1.0,0.9645053,0.71403784,0.7401184000000001,0.5281559,0.6682560000000001,0.6995399999999999,0.8238154000000001,0.9929663000000001,0.38834435,1.0,0.0,0.65495557,0.67402756,0.6571962,cluster1_pred,2.0,2
0.627848,0.16026102,0.15496217,0.15994203,0.15494183,0.14373809,0.029010372000000003,0.6460927,0.65607613,0.61975586,0.62343484,0.5982784999999999,0.580911,0.53955305,0.5556432,0.54484874,0.53381217,0.15391167,0.15200017,0.60648966,0.6071239,0.56742007,0.6480227,0.47761375,0.5380986999999999,0.27123270000000005,0.103123516,3.0,1.0,0.64614403,0.6498597,0.67360955,cluster2_pred,,3
0.59845346,0.18305263,0.17978504,0.17535639,0.17324129,0.15812099,0.39953208,0.71020365,0.6417861999999999,0.6001223000000001,0.64084846,0.59399194,0.60327655,0.5370933000000001,0.5610861999999999,0.58052856,0.56904346,0.16694899,0.16556199,0.6073746,0.6008621999999999,0.58429897,0.64115024,0.32880570000000003,0.510824,0.26540990000000003,0.1631616,2.0,1.0,0.65871644,0.6439252,0.7811483,cluster2_pred,,1
0.66997236,0.51134783,0.50792885,0.5116212,0.507315,0.45665753,0.021048117,0.6327321,0.5981829000000001,0.6447679000000001,0.691062,0.63542366,0.5278791,0.43409425,0.5307964,0.5194873999999999,0.49421802,0.52217203,0.52599454,0.5935393,0.6080734,0.5324779000000001,0.5388036999999999,0.721488,0.56448925,0.7298554,0.35067844,3.0,0.0,0.6571505,0.659742,0.630144,cluster1_pred,2.0,2
0.63919586,0.12787294,0.12184893,0.12515104,0.11872918,0.1025269,0.08425485,0.6114495,0.5520284000000001,0.5511539000000001,0.54211366,0.5049329,0.5000929000000001,0.46963355,0.47765383,0.48653635,0.4416245,0.14786886,0.15285489,0.52078354,0.54691315,0.49166873,0.27832988,0.06065385400000001,0.15514328,0.21836853,0.12798257,3.0,1.0,0.66805774,0.6528438,0.71727633,cluster2_pred,,1
0.73437345,0.72717243,0.72853905,0.7226383000000001,0.72188693,0.71211135,0.03546362,0.60627985,0.5271434,0.58511895,0.5015841,0.4649249,0.45078630000000003,0.49741054,0.40670198,0.39636692,0.34576854,0.7917263000000001,0.78945524,0.32775924,0.34143326,0.48446682,0.30114,0.34645054,0.40227112,0.7794989,0.7321456000000001,1.0,2.0,0.63633686,0.6506456,0.65211725,cluster2_pred,,3
0.6438176,0.6638357,0.66785556,0.6698236999999999,0.66863024,0.6068303,0.031771038,0.6687350000000001,0.5864979,0.6395814999999999,0.64237875,0.47142947,0.45375186,0.35506946,0.38001275,0.34932142,0.32182696,0.729871,0.7117991,0.43010157,0.49973320000000004,0.37287253,0.28972405,0.2653455,0.19628793,0.7148486999999999,0.34628418,3.0,2.0,0.6433794,0.6601684,0.62869155,cluster1_pred,2.0,1
0.6503908,0.12700926,0.12840410000000002,0.12959655,0.1319106,0.11247763,0.058122125,0.7061251999999999,0.6920758,0.69966096,0.6992925999999999,0.62273055,0.64442515,0.5850946,0.58429164,0.58858526,0.54754066,0.13172251,0.11353585,0.4756275,0.43178853,0.6467906,0.57961136,0.8265269000000001,0.6375273,0.21775852,0.13574478,3.0,1.0,0.6475946,0.65042025,0.6977968,cluster2_pred,,2
0.66175264,0.3678327,0.36771578,0.36950955,0.37144512,0.3352246,0.0675349,0.6994704,0.6720939,0.6523938,0.6657804,0.63189423,0.62692887,0.5738236,0.6228289,0.65453863,0.5989869000000001,0.37856534,0.34101263,0.50859755,0.46948266,0.64194876,0.57553166,0.74897665,0.7674269,0.6447601,0.28629935,3.0,1.0,0.64793634,0.6456436,0.6827898,cluster2_pred,,1
0.5510655,0.14020439999999998,0.13659805,0.13781108,0.13987735,0.12762623,0.047609765,0.69068074,0.6723710999999999,0.66605,0.7017764,0.6907460999999999,0.64979416,0.5467932,0.5718203000000001,0.6262726,0.6398010000000001,0.10141461,0.114777565,0.75955343,0.74296904,0.6364936999999999,0.7573903000000001,0.9432514000000001,0.86975586,0.27004746,0.314641,2.0,1.0,0.66899157,0.6518801,0.67774343,cluster2_pred,,3
0.61229414,0.63955665,0.6379236,0.6315052,0.62802374,0.61076075,0.08080403,0.61057216,0.48867440000000006,0.53087604,0.50919604,0.48366785,0.5176328,0.4928089,0.54916096,0.4898959,0.47638354,0.64288366,0.65981597,0.58610404,0.56536543,0.61356336,0.4539444,0.30488425,0.558541,0.80863833,0.4435186,2.0,2.0,0.6724859,0.64480764,0.67397434,cluster2_pred,,3
0.59650713,0.6770789,0.6756156999999999,0.67847306,0.6717685999999999,0.63638073,0.013982686999999999,0.6044111999999999,0.62169594,0.60029507,0.61206454,0.6247556,0.67997897,0.6552458999999999,0.6004156,0.5230187,0.5593819999999999,0.7148429000000001,0.6431259,0.43563999999999997,0.40436974,0.60987276,0.45613375,0.6663845,0.81057775,0.739396,0.43360522,2.0,0.0,0.6356443,0.6503428,0.66346174,cluster2_pred,,1
0.5687058,0.6429154,0.63821274,0.64358544,0.6412535,0.6225282,0.02912345,0.66448504,0.6473686,0.654473,0.66727144,0.57183856,0.63058823,0.5974862,0.6410214,0.6886937,0.70412964,0.62549,0.605158,0.54502743,0.44112036,0.80032086,0.6186716,0.6051542,0.64043146,0.8111839,0.4878663,2.0,0.0,0.6425573,0.654968,0.6815756,cluster2_pred,,1
0.6012419,0.055275664,0.052730527,0.05552067,0.04949063,0.054084535999999996,0.12509553,0.60840476,0.6098812,0.55159944,0.5991866,0.6162371999999999,0.5854550999999999,0.48203409999999997,0.44342345,0.43020698,0.39354429999999996,0.07207179,0.08558621,0.46124277,0.4570525,0.5513651999999999,0.38641706,0.3941923,0.46508320000000003,0.20354323,0.3266261,2.0,1.0,0.6670665,0.65140426,0.6886834,cluster2_pred,,3
0.82870984,0.7108584,0.7076204,0.69973433,0.6968761,0.6932227,0.070389144,0.554992,0.55207783,0.5631273,0.5262060000000001,0.51584035,0.5483739000000001,0.51134634,0.5607384,0.5275051,0.46662876,0.7360837,0.7159201,0.50682527,0.5025155,0.5602236999999999,0.39310229999999996,0.44760796,0.61225396,0.82728696,0.43428585,1.0,2.0,0.66513556,0.6472625,0.66655236,cluster2_pred,,1
0.7159338000000001,0.720071,0.7151395,0.71597004,0.7155136,0.71020025,0.120907746,0.60080725,0.63696396,0.5953651,0.5847993,0.59749776,0.61821073,0.5573444000000001,0.5607380999999999,0.54433864,0.5607455,0.7229890999999999,0.70092034,0.5322044,0.46950915,0.701534,0.51552445,0.6531724,0.7375972,0.8204971999999999,0.45069766,1.0,0.0,0.6524948,0.6577901,0.6792879,cluster2_pred,,1
0.6891675,0.77361935,0.775582,0.7785939000000001,0.7719087,0.78290534,0.008359978,0.71678215,0.7725791,0.77245307,0.7913614999999999,0.58457446,0.5508447,0.5218566,0.49288076,0.51715726,0.535896,0.82441646,0.72943586,0.30033594,0.28418413,0.54905283,0.43094269999999996,0.5411564999999999,0.33717959999999997,0.9444969999999999,0.6925800999999999,1.0,2.0,0.63773274,0.6622958,0.64282644,cluster1_pred,2.0,1
0.7918719,0.57170963,0.5794090999999999,0.5698478,0.57037324,0.5475908,0.055552524000000006,0.5332657,0.54258364,0.61123264,0.48147285,0.3157507,0.33483478,0.3903022,0.32841617,0.33305508,0.41715804,0.6281871,0.62995774,0.34699297,0.33895653,0.53885645,0.32463044,0.26113600000000003,0.23350503,0.7267912,0.84092903,1.0,2.0,0.64124566,0.64934504,0.6577511,cluster2_pred,,3
0.51463383,0.6884026999999999,0.6877621,0.68949026,0.689537,0.65194,0.024916166,0.67781436,0.6221923,0.56520253,0.5799367,0.50440425,0.48407102,0.45398900000000003,0.46818048,0.45771846,0.43348947,0.70444494,0.7118496999999999,0.7225191999999999,0.7994142,0.41092312,0.56911683,0.23634142,0.2608447,0.75026923,0.48130435,2.0,2.0,0.659324,0.65398693,0.64766324,cluster0_pred,3.0,2
0.7039958000000001,0.7986661,0.7969826999999999,0.7969558000000001,0.7956641999999999,0.7485491,0.022584418,0.61670464,0.74504304,0.46980125,0.46623403,0.451474,0.46166490000000004,0.45800436,0.49070442,0.52684253,0.54894614,0.8088927,0.83312196,0.798796,0.8869216999999999,0.39901626,0.5817840999999999,0.26443049999999996,0.3982172,0.8015156,0.5627443,1.0,2.0,0.6770158,0.65790194,0.64832336,cluster0_pred,3.0,3
0.6489909,0.77323544,0.7760640000000001,0.7774342,0.7802135,0.7533748,0.013616159,0.70504737,0.6444598000000001,0.64674115,0.67608273,0.6401935000000001,0.5724154,0.5471478,0.5537848000000001,0.5503709,0.5319264,0.7943108,0.7615970999999999,0.6028055999999999,0.61283,0.5447679,0.628311,0.5395340000000001,0.5321564000000001,0.8481195,0.24271077,3.0,0.0,0.6435065,0.66433394,0.645135,cluster1_pred,2.0,1
0.65072346,0.76670986,0.76468885,0.7693163000000001,0.7653420999999999,0.73661923,0.0130507685,0.62826693,0.5353111,0.58114725,0.5738088000000001,0.644221,0.72320855,0.6432254,0.7049936,0.7081742,0.662546,0.7490538,0.70369446,0.7437760999999999,0.69450766,0.7099555000000001,0.7063069000000001,0.5972314999999999,0.77871823,0.8584870000000001,0.41323042,3.0,0.0,0.6573745,0.66064423,0.6813362,cluster2_pred,,1
0.6381366999999999,0.13051198,0.12936808,0.13259241,0.13321424,0.12245521,0.03869609,0.68517727,0.6691741999999999,0.702665,0.69157535,0.64648706,0.62464345,0.57471037,0.61664885,0.6013592,0.59770846,0.11316234,0.10046519999999999,0.6001656999999999,0.5583633000000001,0.6654675,0.73953265,0.9455393,0.7490121,0.23313485,0.1398272,3.0,1.0,0.648045,0.652501,0.69190913,cluster2_pred,,1
0.6462463,0.8323976999999999,0.82836074,0.80966425,0.80314815,0.7386815999999999,0.08269516,0.6356625,0.5984616999999999,0.5646966999999999,0.5750683000000001,0.5502286,0.58796406,0.5614264,0.59065074,0.59386617,0.5562059,0.8218868,0.78866494,0.5181908,0.46895775,0.6674153,0.48474409999999996,0.30402622,0.55856633,0.76443905,0.4706157999999999,3.0,2.0,0.665399,0.6528923,0.67237216,cluster2_pred,,2
0.61783296,0.79765844,0.7990553,0.7889345,0.7824345,0.72078437,0.036457926,0.5657423,0.53071266,0.48015988,0.5553076,0.43568808,0.47783265,0.39069206,0.4542377,0.41319759999999994,0.46919367,0.85552675,0.81450576,0.42857718,0.468066,0.44307420000000003,0.32168868,0.20768465,0.35868555,0.76026624,0.5519142,2.0,2.0,0.6554298,0.64794636,0.62682366,cluster0_pred,3.0,3
0.64713377,0.99606556,0.9925771999999999,0.9971007,0.9961374,0.99638975,0.007743898000000001,0.6392996,0.6467523000000001,0.67184275,0.6735342,0.65861386,0.5867955,0.5323635999999999,0.5603461999999999,0.5238305999999999,0.5558877,0.99447423,0.9965272,0.7313276,0.7510068,0.5463794,0.71596205,0.8973234,0.7535173000000001,0.99496025,0.42880827,3.0,0.0,0.6405174,0.6829051,0.6518255,cluster1_pred,2.0,2
0.7395255999999999,0.7334101,0.7355762,0.7389708,0.7396553000000001,0.72099835,0.03536224,0.6791653,0.6445295,0.7100575,0.63639015,0.6212293999999999,0.71125937,0.6328719,0.6400016,0.6603432,0.59640235,0.7305835,0.695049,0.58685505,0.517913,0.72642803,0.6465093000000001,0.9193896,0.87995684,0.8491151,0.33509806,1.0,0.0,0.63628566,0.66896564,0.6802263,cluster2_pred,,3
0.6071583,0.24610142,0.2397455,0.24228077,0.24011396,0.21986571,0.021367855,0.6325383000000001,0.600096,0.6082765,0.6278468,0.609531,0.6149486999999999,0.5890637,0.5986268,0.56850755,0.52167135,0.23685434,0.2273601,0.6371925,0.6347731,0.58033967,0.59973204,0.6647516,0.7993563,0.35340795,0.26120603,2.0,1.0,0.6548673,0.64394265,0.66645503,cluster2_pred,,1
0.6549076,0.045871127000000005,0.04362078,0.04735443,0.047269557000000004,0.03102945,0.11386571,0.6737228,0.6375525,0.64117485,0.6462462,0.60465133,0.6004996,0.5613765000000001,0.58565634,0.5755696,0.5627909999999999,0.030962076,0.04387011,0.6399078,0.62473756,0.6106683,0.87480545,0.7697913000000001,0.8365558000000001,0.10309027,0.032309517,3.0,1.0,0.644068,0.65511197,0.710355,cluster2_pred,,3
0.6413935000000001,0.042944199999999995,0.03494481,0.035225924,0.029597806,0.022278877000000002,0.2180223,0.6722634,0.67830664,0.6612756999999999,0.68648636,0.6612658,0.64947236,0.61783075,0.61455274,0.57587993,0.5424308000000001,0.018703872,0.0029877338,0.52150095,0.4687522,0.6762598000000001,0.61238784,0.7939573,0.8579474,0.055277493,0.194353,3.0,1.0,0.65251523,0.645146,0.7440585,cluster2_pred,,1
0.6625525,0.5938295,0.5912662,0.59647256,0.5934528,0.53316414,0.037479527,0.68035436,0.5939411,0.59959805,0.6001852,0.5379733,0.54979056,0.5422114,0.56660086,0.5682549,0.5783142,0.6001444,0.5766313,0.7191478,0.76205343,0.48977238,0.64844555,0.31394342,0.44343755,0.75692797,0.3106894,3.0,2.0,0.6569393,0.65201,0.6656915,cluster2_pred,,2
0.68723744,0.010748053,0.0057839723,0.0070065273999999995,0.0005311217,0.0015091167,0.18615769,0.6208899,0.5583305000000001,0.5502701,0.5972874,0.5226516999999999,0.4985709,0.50809366,0.5233691,0.5243533,0.48526537,0.027047126,0.030048482,0.45458594,0.44451612,0.56386155,0.32971725,0.18672256,0.44899049999999996,0.05537814,0.19927463,1.0,1.0,0.66550356,0.6491162,0.7355078,cluster2_pred,,1
0.6813151,0.22575693,0.21930881,0.22425707,0.21853122,0.19371732,0.076994464,0.6113781999999999,0.5942236999999999,0.60053104,0.63972473,0.58299434,0.583684,0.55267346,0.60446966,0.6124181,0.5856318,0.19005436,0.21161588,0.74502563,0.7205275999999999,0.65226555,0.788601,0.6293266,0.7818583,0.30471882,0.1734763,1.0,1.0,0.6531887,0.6504236,0.68663585,cluster2_pred,,3
0.52932787,0.8383955,0.83959126,0.83870506,0.84298205,0.84002817,0.020393044,0.6733584,0.6119055999999999,0.7231835,0.66949415,0.5775541000000001,0.5866533,0.43716627,0.55141914,0.5054770000000001,0.5546536,0.83821493,0.8668956,0.7328876,0.7560232,0.53859025,0.6423423,0.68590146,0.4534536,0.90194064,0.5049872999999999,2.0,0.0,0.65084034,0.6726943,0.633754,cluster1_pred,2.0,3
0.5819041,0.62588173,0.6218248000000001,0.611742,0.60653764,0.5593551,0.07148093,0.5538360999999999,0.6187064999999999,0.51217026,0.51333326,0.47876945,0.47219497,0.33733135,0.32061777,0.32591912,0.32119197,0.691653,0.6390679,0.29151744,0.33475474,0.40851244,0.18310714,0.19710758,0.21000323,0.6952451999999999,0.43425792,2.0,2.0,0.6461768,0.65327555,0.6181227,cluster1_pred,2.0,3
0.71800154,0.8102778,0.8094182,0.8057019,0.8030033000000001,0.74473035,0.042852685,0.58089024,0.56614816,0.5785375,0.5639259,0.4959803,0.47351375,0.4903276,0.5701141,0.5778047,0.5057694,0.8176521999999999,0.7826954,0.5967538,0.57218075,0.62453455,0.49684188,0.23907916,0.37424162,0.77018267,0.4047644,1.0,2.0,0.6751865,0.6557665,0.6673862,cluster0_pred,3.0,2
0.59874636,0.84165835,0.8515448,0.84508336,0.8570808000000001,0.85752434,0.064243935,0.7702821,0.70453227,0.7231008000000001,0.73545814,0.63160723,0.6298617,0.60234314,0.6559664000000001,0.67104113,0.6289709,0.85937077,0.8167984,0.6420781999999999,0.6429279999999999,0.5736141,0.6851049,0.70397824,0.59511095,0.94962656,0.51593435,2.0,0.0,0.64276785,0.665015,0.6659542,cluster2_pred,,1
0.66301596,0.82121783,0.8241674000000001,0.8238222,0.82270294,0.80356115,0.025992357999999997,0.60569453,0.58744645,0.60636204,0.6871313,0.6628713,0.72318506,0.73728645,0.6088333,0.6073898,0.65694773,0.8608428,0.7618308000000001,0.46949070000000004,0.43591964,0.62162423,0.48674294,0.7690009,0.8465189000000001,0.81382054,0.76868063,3.0,0.0,0.64384425,0.6508021,0.66845804,cluster2_pred,,3
0.5236681,0.7244854000000001,0.7252615,0.7226383000000001,0.7221766,0.68052197,0.024522342000000003,0.5953769,0.6624956,0.61259943,0.55782425,0.55165786,0.5251178000000001,0.47435302,0.5300763000000001,0.52196395,0.52945864,0.7253967,0.73671436,0.6997843,0.7170953,0.5459805999999999,0.59278554,0.3850973,0.3606665,0.7620895000000001,0.47887245,2.0,2.0,0.6600099,0.6587024,0.6401894,cluster0_pred,3.0,3
0.6800477,0.17643107,0.17043428,0.176806,0.17048913,0.15595777,0.09514934,0.62202066,0.65451354,0.70279175,0.65919745,0.57218325,0.6086365,0.52872926,0.5169237,0.53758657,0.5169075,0.17046334,0.18666726,0.5848855,0.58298135,0.56928986,0.57622224,0.62527066,0.38758847,0.23506649,0.18603234,1.0,1.0,0.6548409,0.6550451,0.6927614,cluster2_pred,,3
0.682329,0.15570271,0.15091337,0.15694612,0.15093428,0.14058827,0.03582625,0.636717,0.62526137,0.62241477,0.6232473000000001,0.58784044,0.60734224,0.5656291,0.5744126,0.5701699,0.5290566999999999,0.15038761,0.14663984,0.6134255999999999,0.6151681,0.5661338,0.6522815,0.5597641999999999,0.69998604,0.2712982,0.08315244,1.0,1.0,0.6482026,0.6493779,0.67955923,cluster2_pred,,2
0.75580186,0.7407994000000001,0.742517,0.7335589,0.72951573,0.6971841999999999,0.02175388,0.59303606,0.59595484,0.5967438,0.6544601999999999,0.6256553,0.65784854,0.60791045,0.6209982,0.5847486999999999,0.57910055,0.74191666,0.7043478,0.53960013,0.48233494,0.69022787,0.54460037,0.7295831,0.8409228999999999,0.8214249,0.33573234,1.0,0.0,0.64315253,0.660124,0.66343933,cluster2_pred,,1
0.66040653,0.14006045,0.13626064,0.1404204,0.13833228,0.12642707,0.04715745,0.6559020000000001,0.6202270000000001,0.6398595,0.6451695,0.58538467,0.59909165,0.5144706,0.56306297,0.5628558000000001,0.53296876,0.12563145,0.12963195,0.6345166,0.62070644,0.6064729999999999,0.67935586,0.6127108,0.6304193,0.24702832,0.14568809,3.0,1.0,0.6537346,0.650386,0.6795277,cluster2_pred,,1
0.8373210999999999,0.7053884,0.7052104,0.7057260000000001,0.7032495,0.670545,0.045859,0.65356183,0.647215,0.5601326999999999,0.5845899999999999,0.6054063000000001,0.67786735,0.68787414,0.5578755999999999,0.24855648,0.34688428,0.7635846,0.7484534,0.34913546,0.35240316,0.51282513,0.4013744,0.42645934,0.57507896,0.80624586,0.6323439000000001,1.0,2.0,0.6365523,0.6541536,0.65822494,cluster2_pred,,1
0.69754887,0.5876398,0.5976286,0.5943948,0.6017575,0.5840285,0.08359978,0.72439104,0.5919302,0.6350038,0.6257656,0.58112806,0.5632855999999999,0.52289844,0.5445981,0.5530823,0.5370849,0.67567736,0.633203,0.19374251,0.1501937,0.59305847,0.27108026,0.5341803,0.49207368,0.80404484,0.5223009,1.0,2.0,0.6636658,0.65010047,0.6850448,cluster2_pred,,2
0.65639246,0.6755434,0.6747482,0.67760336,0.67432773,0.60613835,0.045550965,0.64824694,0.64084274,0.6259210999999999,0.6920534,0.62773806,0.7017063,0.6500107,0.70233476,0.73420346,0.6890785,0.6278519,0.6522231,0.7954613,0.7229889,0.7739453000000001,0.85732377,0.86036247,0.8986225,0.7649016,0.39892375,3.0,0.0,0.6412856,0.6683567,0.6836688,cluster2_pred,,3
0.7690517,0.7375366,0.73663664,0.74331963,0.7378205,0.7010473,0.020291663999999997,0.6666460999999999,0.8076398,0.7956936,0.79814446,0.6702695,0.67745143,0.6797744000000001,0.75861895,0.8195724,0.6540592,0.759267,0.7410481,0.42105725,0.36322334,0.66924685,0.5482302,0.7385224,0.56971514,0.8097531,0.6298196,1.0,0.0,0.6331253,0.65597886,0.67543536,cluster2_pred,,2
0.6490553000000001,0.70769155,0.70829517,0.70925343,0.71276134,0.6442431,0.01283631,0.6676393,0.63322175,0.6556835999999999,0.6246036,0.53998464,0.5697831999999999,0.5133899000000001,0.5118435,0.6066238,0.6093066,0.7169219,0.68711406,0.6566026,0.65901726,0.5726884,0.64121425,0.5130939999999999,0.31212652,0.7380138,0.30772459999999996,3.0,2.0,0.646885,0.6642166,0.6503902,cluster1_pred,2.0,3
0.69143206,0.102922134,0.09731529,0.09562699,0.09038674,0.08921797599999999,0.07371130000000001,0.60661095,0.60633636,0.60694194,0.5904441999999999,0.520417,0.48757926,0.47139558,0.46234040000000004,0.44048703,0.42221087,0.11792670000000001,0.13349417,0.48308402,0.5072793,0.48909673,0.34394798,0.12946673,0.10477047,0.20083117,0.25796217,1.0,1.0,0.66008484,0.6551451,0.70708126,cluster2_pred,,1
0.6378121,0.6954081,0.69749844,0.69770473,0.7001594,0.69621354,0.036680184,0.6425122,0.50808257,0.5223567,0.5578900999999999,0.5486755,0.5616555999999999,0.5181894,0.6295839,0.41442686,0.35749677,0.7569876,0.73462236,0.33478802,0.29995190000000005,0.5992301,0.33708975,0.465071,0.6606316,0.77759844,0.6280993,3.0,2.0,0.6547346,0.645769,0.6581265,cluster2_pred,,3
0.5366765,0.79473156,0.80295944,0.79212373,0.7890010999999999,0.77299035,0.045180537,0.6489775999999999,0.75340956,0.65687525,0.54350615,0.4993432,0.51947546,0.41375077,0.46233549999999995,0.42479077,0.36473107,0.8376121,0.8416683,0.41472754,0.43889824,0.47628883,0.40927655,0.26697955,0.17306292,0.7928901999999999,0.6974619000000001,2.0,2.0,0.6361015,0.66182077,0.63140893,cluster1_pred,2.0,3
0.6940189,0.47987142,0.47534582,0.46953368,0.46675682,0.41818124,0.051945724000000006,0.59563994,0.5660755999999999,0.58391315,0.5743052,0.5871101,0.61880875,0.5296213000000001,0.53679574,0.52311295,0.5336731,0.45784357,0.46110959999999995,0.6594182,0.62969345,0.6483758000000001,0.5887427,0.5113095999999999,0.6525401,0.70458007,0.37265053,1.0,0.0,0.66410553,0.6505487,0.66371423,cluster0_pred,3.0,1
0.6676314999999999,0.16337988,0.15602256,0.16216479,0.15716286,0.14548376,0.040232394,0.62024677,0.6065043000000001,0.59787256,0.61987776,0.5701338,0.5620574,0.50593317,0.5453804,0.5418494,0.51674956,0.16011201,0.15678138,0.59483975,0.5901987,0.5775635,0.55988437,0.39350706,0.5224885,0.2782743,0.07383089999999999,3.0,1.0,0.6544613,0.6485212,0.6756097,cluster2_pred,,1
0.65650415,0.77726597,0.7741359999999999,0.7817831000000001,0.77606106,0.7496533000000001,0.031677455,0.6437904999999999,0.6174699,0.60336304,0.6064792,0.55092734,0.53616375,0.49067134,0.5626505999999999,0.5618924,0.6119136,0.7756694000000001,0.7619022,0.66131896,0.6479186,0.61055917,0.64831275,0.16194539,0.34194735,0.8546816999999999,0.26874159999999997,3.0,2.0,0.6746324,0.6579063,0.6646153,cluster0_pred,3.0,2
0.62939805,0.8313421,0.83722943,0.83087707,0.83810544,0.77525795,0.05593075,0.70930886,0.745278,0.7618439,0.74272215,0.6904661,0.6571756999999999,0.6322348000000001,0.63274354,0.62793976,0.5893311999999999,0.83381736,0.79915315,0.6144556,0.58593154,0.6371055999999999,0.74170303,0.8202801,0.6879071,0.7869854000000001,0.36578774,3.0,0.0,0.62168896,0.6747867,0.6656835,cluster1_pred,2.0,1
0.65159,0.17566338,0.17621824,0.17617784,0.17353098,0.13946036,0.08825548,0.6467831,0.6546339,0.6506614000000001,0.6391312,0.6846222,0.69754153,0.6355428000000001,0.6605081,0.6596709,0.64018947,0.1408461,0.14688693,0.6859459,0.62702215,0.7216501999999999,0.8790507,0.81070673,0.8538836,0.23819144,0.17128827,3.0,1.0,0.64093816,0.64729476,0.7067104,cluster2_pred,,2
0.66238326,0.8312940999999999,0.8274449,0.8366756,0.83120084,0.80732906,0.004655697,0.6553905,0.6332979000000001,0.6341929000000001,0.6303814999999999,0.5892354000000001,0.62593997,0.62083536,0.5484739000000001,0.5530058000000001,0.538229,0.8518332000000001,0.83400124,0.5654988000000001,0.5578401,0.57909817,0.56819445,0.45906675,0.6042632,0.8252761000000001,0.28856415,3.0,0.0,0.6525604,0.662099,0.6539975,cluster1_pred,2.0,1
0.6463966999999999,0.49172306,0.48908275,0.4898285,0.4896915,0.44201276,0.047601964000000004,0.70265776,0.6667046,0.6537638000000001,0.6455232,0.5887724,0.626275,0.5627462,0.57831997,0.63749295,0.58829373,0.48396313,0.5058337,0.6724229,0.6703220999999999,0.5862251,0.6741904000000001,0.541913,0.5635875,0.7201329000000001,0.37663534,3.0,0.0,0.6489696,0.65533584,0.6641903,cluster2_pred,,3
0.57686645,0.21241784,0.20957248,0.2094709,0.21138528,0.19251406,0.11468455,0.69549996,0.586394,0.5873963000000001,0.62050307,0.5837511,0.62078273,0.5658821999999999,0.5480305,0.57444835,0.52458113,0.20751832,0.19100301,0.58578336,0.5638181999999999,0.61637133,0.5619002,0.4356099,0.6584871,0.29769817,0.27756786,2.0,1.0,0.6552619,0.6413938,0.6967641,cluster2_pred,,3
0.6660425999999999,0.013962861000000002,0.006169561,0.012128544,0.0054077497,0.0049937316,0.15555643,0.6234239,0.6275550999999999,0.5759299,0.5618805,0.5050281,0.51554304,0.44979579999999997,0.46102428,0.46852082,0.43657390000000007,0.041514635,0.04239664,0.44761002,0.47422609999999993,0.47675917,0.28212634,0.15050120000000003,0.15046379999999998,0.08018748,0.19282486,3.0,1.0,0.6645727,0.655068,0.73492825,cluster2_pred,,2
0.6446793000000001,0.69502425,0.6971609999999999,0.6970283,0.7019941999999999,0.63511527,0.018037900000000003,0.66900724,0.6491194,0.68701184,0.6708552,0.6648357,0.6445486999999999,0.6021935,0.6279111999999999,0.6333589,0.64730877,0.6827005,0.6698006,0.70358026,0.6647975,0.6778696,0.8098241999999999,0.9127460999999999,0.84179854,0.7419560000000001,0.31900817,3.0,0.0,0.6263591,0.6733484,0.6612738,cluster1_pred,2.0,2
0.7041857,0.6965597,0.7009688000000001,0.6994443,0.70295984,0.6987645,0.025485456,0.66130733,0.67992365,0.6437206,0.5999899000000001,0.4652895,0.48496252,0.42048937,0.4713469,0.45028973,0.46882558,0.73279655,0.72917336,0.49843016,0.5107705,0.5197077,0.43245575,0.25452277,0.189495,0.8238040999999999,0.4812356,1.0,2.0,0.65176684,0.660238,0.6295573,cluster1_pred,2.0,3
0.67756057,0.5876398,0.5951221999999999,0.58762985,0.5978949,0.58060724,0.08701552,0.66042584,0.61910444,0.5488062,0.5637316,0.1597834,0.18128033,0.16103771,0.15067838,0.1389167,0.16250038,0.7115041999999999,0.69668823,0.17365941,0.28441995,0.22842820000000003,0.11590642,0.10415025,0.0691182,0.8006713000000001,0.58436763,1.0,2.0,0.6316197,0.6605916,0.7067561,cluster2_pred,,2
0.6268772,0.38841709999999996,0.39282787,0.3913506,0.38926175,0.34495673,0.2144116,0.6221687,0.61111325,0.6207411999999999,0.6471294,0.63608253,0.6051187,0.5835781999999999,0.58719325,0.6313774999999999,0.6522286,0.3569349,0.35799515,0.8227753000000001,0.82022697,0.61556953,0.8167848000000001,0.82582897,0.85447323,0.45390382,0.35752228,3.0,1.0,0.66232866,0.6560889,0.7147934,cluster2_pred,,3
0.5121982,0.7518354,0.7536993000000001,0.7517275,0.7521124,0.7004716999999999,0.080679245,0.643418,0.4917785,0.46063279999999995,0.47711578,0.21611035,0.18595609,0.22175573,0.31305552,0.3798843,0.34127057,0.84999114,0.83785,0.34974125,0.44300774,0.30247813,0.20480415,0.024009347,0.0052019306,0.7426636,0.58554256,2.0,2.0,0.65819,0.6525427,0.70098567,cluster2_pred,,1
0.6798401,0.14601029999999998,0.13973103,0.14153179999999999,0.13538699,0.11510194,0.117952116,0.6141267,0.5981386,0.5927988000000001,0.5656728,0.49472840000000007,0.50328875,0.48018727,0.49662152,0.503368,0.5059629,0.13633019,0.16535242,0.5940626,0.58889157,0.5786568,0.4722919,0.020068106999999998,0.07507387,0.25258866,0.12254443,1.0,1.0,0.662471,0.6462646,0.73828256,cluster2_pred,,2
0.6849390999999999,0.58907926,0.5879404,0.5861803000000001,0.5854377,0.52645934,0.037861656,0.5962078000000001,0.57112616,0.56585866,0.5625214,0.532617,0.5336607,0.49909756,0.538465,0.48676049999999993,0.46615574,0.60979706,0.6097945,0.64901584,0.6938482,0.47206718,0.5131806,0.25041202,0.40622225,0.7527263000000001,0.27250728,1.0,2.0,0.6667125,0.6492854,0.6540872,cluster0_pred,3.0,3
0.54471904,0.6915695,0.70202917,0.69712496,0.70653284,0.6701971999999999,0.049801137,0.7000281,0.7815044,0.8133762,0.7904109,0.8679896,0.79077613,0.76139003,0.8148853,0.83902025,0.75144345,0.6356092,0.6458531999999999,0.7891139,0.6653393,0.89272034,0.7953131,0.94777143,0.9064074000000001,0.7605449000000001,0.73550284,2.0,0.0,0.6392995,0.6604394,0.69603616,cluster2_pred,,2
0.53578174,0.70625216,0.7411674,0.7130708,0.74506307,0.74546105,0.12804335,0.9357648999999999,0.96026313,0.88681626,0.87249434,0.7881028,0.8286554,0.769302,0.8063073000000001,0.8138905,0.8633466999999999,0.6919408,0.6636498000000001,0.58060986,0.4637482,0.83731186,0.7444476,0.7458484999999999,0.698919,0.86854607,0.86830014,2.0,0.0,0.6243386,0.66549265,0.7118887,cluster2_pred,,1
0.66012144,0.044335692999999995,0.03749939,0.04614641,0.040944427,0.026582099999999997,0.09098495,0.6549078,0.64734036,0.6548970000000001,0.6532809,0.6156563,0.61488485,0.5792754,0.58690816,0.58305484,0.5562895,0.025976906,0.03748035,0.62745714,0.6082428000000001,0.61778194,0.85392535,0.9267052,0.8688396999999999,0.06804009,0.011815579,3.0,1.0,0.6435298,0.65727085,0.70531136,cluster2_pred,,2
0.6558586,0.6050094,0.6030269,0.6055086,0.6021438,0.5843705,0.069956325,0.63586986,0.6231315,0.62670636,0.6502411,0.6088520000000001,0.5861958,0.4803914000000001,0.5063975000000001,0.19620295,0.19525899,0.69879633,0.66356516,0.14879109,0.17883167,0.41251034,0.15979595,0.71830416,0.63224536,0.78892076,0.47959656,3.0,2.0,0.6611389,0.6599147,0.6556617,cluster0_pred,3.0,1
0.6689217,0.7151769,0.71523595,0.71848273,0.71358216,0.67966145,0.035498712,0.63706213,0.64871705,0.60237664,0.6060293999999999,0.52505714,0.49278396,0.43012947,0.46047038,0.41302,0.35717055,0.75976425,0.76023835,0.45587313,0.49423075,0.45085686,0.37523875,0.33607173,0.25600713,0.8236611999999999,0.43461314,3.0,2.0,0.6436356,0.65858614,0.62533903,cluster1_pred,2.0,3
0.66261524,0.025814507,0.01990648,0.027397932000000003,0.021824155,0.01313829,0.10754894,0.65445447,0.6087878999999999,0.6338566,0.63904345,0.5956469,0.6024833,0.5461185000000001,0.57522315,0.55833954,0.5396118000000001,0.012189958999999998,0.019609981999999998,0.6030485,0.5826446,0.6159699000000001,0.7096079000000001,0.6101434,0.7869792,0.03500354,0.022536602000000003,3.0,1.0,0.64981985,0.65177435,0.71199816,cluster2_pred,,2
0.65688074,0.24403822,0.24220370000000002,0.23981639999999999,0.24479747,0.22362757,0.061662637,0.6700878,0.68231297,0.6926229,0.7198673000000001,0.662686,0.62841165,0.5497673000000001,0.5769340000000001,0.6037925999999999,0.5932453000000001,0.23174278,0.22243346,0.6432044,0.6325741,0.600672,0.6548837,0.87761617,0.72818536,0.34712535,0.29721287,3.0,1.0,0.6557224,0.65064305,0.67263997,cluster2_pred,,2
0.7557522,0.78292793,0.7782812,0.774245,0.7693014,0.7634628000000001,0.044213522000000005,0.5758112,0.5891729,0.6333126,0.5998498999999999,0.5302988000000001,0.5813906,0.5834388,0.61872345,0.6432378000000001,0.6275185999999999,0.7820024999999999,0.73619217,0.6565485,0.6452521999999999,0.60474104,0.5882963999999999,0.48181725,0.5769154000000001,0.84902173,0.41265976,1.0,0.0,0.6653191,0.65530694,0.6809108,cluster2_pred,,2
0.6123144,0.7003023,0.7032824000000001,0.6869775,0.68895763,0.6514329000000001,0.064887315,0.58239055,0.45700428,0.42757365,0.5169378,0.42539853,0.36078373,0.37495434,0.38593507,0.36612374,0.37773016,0.72802085,0.7346341,0.6234877,0.6884156,0.4202694,0.40248156,0.16696513,0.29425004,0.7540836999999999,0.52803904,2.0,2.0,0.6677163,0.6471593,0.65158194,cluster0_pred,3.0,1
0.6023559,0.7116262,0.7214055,0.7151003,0.71860373,0.6948821,0.057201903,0.67145157,0.6352675,0.5843997,0.6372039,0.6251618,0.599726,0.6357722,0.61595005,0.6296109999999999,0.57710415,0.7202036999999999,0.69640183,0.6569914000000001,0.6455944,0.60505986,0.6171715999999999,0.5410461,0.6734806,0.84404945,0.62343526,2.0,0.0,0.6521691,0.6510635,0.66375256,cluster2_pred,,3
0.69861835,0.79679483,0.79221094,0.7802368000000001,0.7746609,0.70883286,0.045083053,0.5160859,0.57959485,0.5838393,0.57313883,0.5337076999999999,0.6101183000000001,0.5456416999999999,0.5819071,0.6061517,0.6105513000000001,0.7468183,0.7952887,0.92333806,0.934945,0.6013946,0.73359215,0.56576705,0.69557357,0.75786203,0.53142834,1.0,0.0,0.6780637,0.6687444,0.66754293,cluster0_pred,3.0,1
0.66900724,0.6961279,0.6960042,0.7023436,0.6986626,0.6322906999999999,0.018271856,0.65506774,0.67537224,0.6561267,0.7001389,0.63869995,0.6451461,0.60077786,0.62891656,0.6578801,0.62293977,0.6809821,0.6648899,0.69485724,0.65495574,0.67884403,0.78911746,0.80011797,0.7892758000000001,0.739056,0.31950888,3.0,0.0,0.62821406,0.67031807,0.6570297,cluster1_pred,2.0,1
0.6522543000000001,0.07821122,0.074083015,0.08137231,0.07643281,0.05992934,0.06928956,0.667466,0.65373725,0.6480066,0.6608991999999999,0.6082860999999999,0.61360574,0.5886611999999999,0.5926415,0.58900833,0.5651696999999999,0.06138625,0.06790575,0.6410343000000001,0.62731695,0.6074828,0.85636395,0.86413974,0.87755567,0.123747885,0.044464542999999995,3.0,1.0,0.64186275,0.6561752,0.6964966,cluster2_pred,,3
0.7341426,0.69751936,0.69692004,0.7003140999999999,0.69813144,0.6943661999999999,0.018837245,0.6542594,0.6535261,0.7034557,0.67811346,0.64588743,0.53680503,0.52807295,0.5398321,0.52640766,0.42378142,0.73575544,0.7116339,0.35047755,0.30324093,0.6311814,0.40134907,0.7024465,0.5042702,0.77816314,0.51871645,1.0,2.0,0.6483451,0.66221535,0.6507116,cluster1_pred,2.0,2
0.6646232,0.09702029,0.09177231,0.09910606,0.09550482,0.07770915,0.08372456,0.6579783,0.674798,0.6743286999999999,0.6765639,0.6247020999999999,0.64928186,0.57169265,0.58832407,0.5778824,0.5772451999999999,0.08750726,0.07760247,0.5854158,0.5642921999999999,0.61433417,0.7612478,0.9361108,0.91817915,0.18508463,0.087797545,3.0,1.0,0.648396,0.6536306,0.69816977,cluster2_pred,,1
0.6992998,0.050141554000000005,0.04969392,0.04624307,0.039930478,0.046760377,0.16680184,0.6012419,0.54828554,0.5723321,0.5250878000000001,0.5144956,0.5728434,0.50537306,0.4737383,0.40281507,0.37722102,0.07221652,0.08392901,0.44546336,0.45069665,0.5263584,0.3322813,0.2574914,0.38899118,0.18736029,0.33043635,1.0,1.0,0.66858566,0.6571625,0.71730715,cluster2_pred,,2
0.6569347,0.055995405,0.049934935,0.05769509,0.052773874000000005,0.04275484,0.08915231,0.6431256,0.6399199000000001,0.6668969,0.67041063,0.6354859,0.59858316,0.5647291999999999,0.59307253,0.6191919,0.60194075,0.03462446,0.037592825,0.60944813,0.56767523,0.66714543,0.7257316,0.9073620000000001,0.82348806,0.10558424,0.07766011,3.0,1.0,0.65352607,0.65213567,0.7091514,cluster2_pred,,1
0.6333727,0.0291253,0.022461096,0.028944197999999997,0.024238331000000002,0.014835726,0.05603213,0.6360925000000001,0.62716526,0.6376985,0.6432309,0.57497096,0.5884288000000001,0.54186386,0.5650681,0.5690727,0.54088396,0.01508375,0.024223917999999997,0.60863787,0.59158313,0.6091898,0.70732325,0.7877455,0.675423,0.045056734,0.024068138,3.0,1.0,0.6512492,0.6547535,0.6959514,cluster2_pred,,3
0.6397059,0.10018714,0.09480888,0.10229525,0.09893294400000001,0.0802325,0.06168603,0.6703191999999999,0.6503308000000001,0.6371691999999999,0.64833146,0.5845536,0.5876561,0.5440459,0.59021634,0.5846836999999999,0.5648156999999999,0.0887315,0.087822475,0.6057372,0.58670044,0.61327887,0.73973024,0.5003280999999999,0.49596354,0.18671708,0.056258067,3.0,1.0,0.6421949,0.64885795,0.69762206,cluster2_pred,,2
0.69602644,0.60505736,0.6144503000000001,0.61164534,0.6115108,0.5532434,0.052491616,0.6960278,0.61369324,0.65164953,0.68211645,0.6449249,0.6611633000000001,0.62846136,0.7025004,0.7248809,0.7022628000000001,0.6152337,0.5653143,0.55637115,0.48829827,0.7186579000000001,0.5947656,0.6622126,0.7931997,0.74493283,0.41334840000000006,1.0,0.0,0.63927776,0.65165025,0.69322455,cluster2_pred,,3
0.7596909000000001,0.23439376,0.23000917,0.23396957,0.23349911,0.21455228,0.042244405,0.6656847,0.59963936,0.63440293,0.61368567,0.58052146,0.56384283,0.5217039000000001,0.5439054,0.50206375,0.53742254,0.24644348,0.2533057,0.5523134,0.55812854,0.5451081,0.50397116,0.5113555000000001,0.49041090000000004,0.3556019,0.18135919,1.0,1.0,0.6526515,0.65072453,0.67160076,cluster2_pred,,2
0.60226756,0.6786623,0.6790379,0.6834501000000001,0.680846,0.62277865,0.020626998,0.62152797,0.62719303,0.573025,0.58002573,0.5382773,0.5330126999999999,0.46093026,0.47242507,0.46992979999999995,0.4508945,0.7097595999999999,0.6993585,0.51903236,0.5275439000000001,0.5325386999999999,0.37937796,0.24023044,0.21910144,0.71896267,0.21585204,2.0,2.0,0.66280216,0.6592603,0.6354749,cluster0_pred,3.0,3
0.47178483,0.67333627,0.67677253,0.6578884,0.67534167,0.68138796,0.07782889999999999,0.60511196,0.45480454,0.48985198,0.4863052,0.44812363,0.33115279999999997,0.27533844,0.16849782,0.19957070000000002,0.20868208,0.76028055,0.7538431999999999,0.40207863,0.49679726,0.3089327,0.27085359999999997,0.2313004,0.21700808,0.85735714,0.8900626,2.0,2.0,0.62152505,0.64980865,0.6434912,cluster1_pred,2.0,2
0.7663043,0.7492443,0.745891,0.7454458,0.75047076,0.7267184,0.03594323,0.65419227,0.6047391,0.60802764,0.5249196999999999,0.5300979,0.64112467,0.58193123,0.57151675,0.57521385,0.5517432,0.7669691,0.7282044,0.57655776,0.5561411999999999,0.61101365,0.537828,0.39241597,0.5117311999999999,0.85371876,0.39429525,1.0,2.0,0.66403013,0.6555211,0.66681623,cluster2_pred,,2
0.6769389,0.46538073,0.4627175,0.46721432,0.46255618,0.41946378,0.014684551,0.65068346,0.6387877,0.59503484,0.5512994999999999,0.46397856,0.49836996,0.4777878,0.5020259,0.52883494,0.47667938,0.49816406,0.49196437,0.5156946,0.5500071999999999,0.47157508,0.39210895,0.06917682,0.11284032,0.71606416,0.32252659999999994,1.0,2.0,0.6606587,0.648425,0.6718181,cluster2_pred,,2
0.63690394,0.725637,0.72892463,0.72408795,0.7172518,0.6936749,0.06565936,0.5873845,0.6276566,0.6685183000000001,0.65039396,0.69928133,0.6509669,0.6171401999999999,0.60217035,0.45454583,0.6492628,0.7182896,0.69209045,0.6591804,0.6410786,0.621151,0.61249596,0.8003861999999999,0.7854585,0.8367427,0.6369398000000001,3.0,0.0,0.65059066,0.6625546,0.66218257,cluster1_pred,2.0,1
0.6576031,0.6364858,0.63541716,0.6378835999999999,0.637584,0.61926436,0.054862358,0.6604714,0.6514127,0.59892416,0.6715103,0.64566725,0.6707512,0.6696284,0.71876854,0.6904154,0.6552906999999999,0.6244171,0.5960696999999999,0.5117742000000001,0.39387548,0.8267815000000001,0.5920101999999999,0.70228356,0.7443719,0.80703217,0.55251163,3.0,0.0,0.6418856,0.650469,0.6895546,cluster2_pred,,1
0.6529349,0.16529918,0.1666265,0.16907467,0.17034428,0.15584391,0.06620136,0.67320645,0.6270475999999999,0.63427716,0.66987026,0.6336923000000001,0.6040156,0.55693656,0.5665281999999999,0.5720031999999999,0.548821,0.16302764,0.16371597,0.6074217,0.59380645,0.60091776,0.7064823,0.7611216,0.79804504,0.28608027,0.09062433,3.0,1.0,0.6466945,0.65272003,0.6831607,cluster2_pred,,3
0.6945891,0.7282281,0.73094904,0.72698724,0.7344407,0.7356993000000001,0.027333697,0.6791837,0.67098254,0.6864214,0.7096121,0.6943911,0.694663,0.6830121,0.70049113,0.6093636,0.5470982,0.7150227,0.7345243,0.6672345000000001,0.6158776,0.70043343,0.67560166,0.8848997,0.86963046,0.87780166,0.683185,1.0,0.0,0.64577895,0.66233,0.65931094,cluster1_pred,2.0,2
0.5837291,0.7146491,0.71186197,0.7194975,0.7125683,0.64407957,0.010114638,0.6490553000000001,0.64261585,0.63230133,0.65570676,0.5749671,0.5321030999999999,0.5224128,0.5328096,0.50206834,0.58357584,0.7179134,0.68805873,0.6523720000000001,0.65698075,0.56676126,0.6390828000000001,0.6501011,0.47373414,0.7360247,0.28603363,2.0,0.0,0.64201105,0.669448,0.6416688,cluster1_pred,2.0,3
0.5518413000000001,0.08915119,0.08618112,0.08702584,0.082613096,0.07946028599999999,0.11147157,0.64520806,0.6037873,0.63054407,0.6594145,0.634224,0.6546393,0.5987303,0.5880232,0.577475,0.58296025,0.068794526,0.06295222,0.5378704000000001,0.46744215,0.72068393,0.5800573,0.83739525,0.9041805,0.23700349999999998,0.23276831,2.0,1.0,0.66837823,0.64045113,0.7140544,cluster2_pred,,3
0.61281556,0.7506838,0.7547596999999999,0.75192076,0.7501810999999999,0.7501644000000001,0.025426967,0.66673857,0.7936914,0.7734661999999999,0.7647816,0.6608288,0.6134025,0.5905848000000001,0.6244914,0.62929904,0.6213568,0.7310783000000001,0.6888978,0.6864967,0.65939695,0.6473336,0.71584237,0.7242946,0.5348494,0.88456905,0.5891105999999999,2.0,0.0,0.6374542,0.66574943,0.6485855,cluster1_pred,2.0,1
0.6656847,0.24063145,0.23492552,0.23498431,0.23060210000000003,0.21222539,0.048186854,0.6022393,0.6208625,0.5963621,0.6178956,0.5597593000000001,0.55685437,0.5143297,0.5016343,0.5501434000000001,0.50044906,0.24656595,0.25435293,0.5557483,0.5624799,0.5436113,0.47407920000000003,0.41237694,0.458333,0.35158290000000003,0.18743534,3.0,1.0,0.65521204,0.6465842,0.6657392,cluster2_pred,,1
0.7192982,0.7828319,0.782812,0.7786906,0.77644736,0.73165643,0.021422444,0.56682426,0.5872078000000001,0.5562668000000001,0.5269654,0.5461189000000001,0.5220302,0.52954066,0.58948964,0.59747165,0.5683834,0.7582547,0.75824594,0.9333030999999999,0.987722,0.5031549,0.7089159,0.3789065,0.55739546,0.7897427,0.5472526,1.0,0.0,0.6839097,0.66233647,0.6646063,cluster0_pred,3.0,2
0.71943706,0.34849572,0.34935170000000004,0.34786183,0.34904158,0.31233796,0.18939406,0.6391653,0.5811613,0.57494736,0.62085426,0.55030435,0.6037835,0.5319656999999999,0.58751464,0.58397365,0.63853544,0.32072374,0.37089312,0.7723163000000001,0.75179327,0.6481061,0.72510505,0.43042907,0.6367727,0.4048963,0.36387533,1.0,1.0,0.6622583,0.6532013,0.7115489,cluster2_pred,,3
0.6459481,0.07096587,0.06641924,0.0738826,0.07049395,0.070175536,0.17208141,0.694854,0.6595065,0.62815166,0.6028368000000001,0.5561005,0.56671786,0.5707548000000001,0.6069689,0.58686185,0.57603025,0.07262742,0.05726799999999999,0.42966893,0.35667540000000003,0.7063184,0.46526194,0.30515823,0.3924651,0.20501309999999998,0.26798695,3.0,1.0,0.6530409,0.6435308,0.7489736,cluster2_pred,,2
0.5649202,0.58917516,0.59570056,0.59594107,0.5909420999999999,0.5310638000000001,0.05273337,0.66902703,0.6414955,0.6561133000000001,0.6602728,0.62940747,0.54634005,0.58242583,0.5820033,0.6150409,0.60955024,0.5576814,0.5812394000000001,0.8332943000000002,0.8341398000000001,0.60961276,0.7605898,0.46869716,0.47116423,0.7534423000000001,0.40592483,2.0,0.0,0.6549336,0.6616586,0.67142874,cluster2_pred,,3
0.6774254,0.7410873,0.7495541,0.7467020999999999,0.75452656,0.73438376,0.025828589,0.7395255999999999,0.7324946,0.7156784,0.77233577,0.6532467,0.6786619,0.70649403,0.7016156,0.6885475999999999,0.6937399000000001,0.7318795,0.6976501,0.6136844,0.5357371,0.7525363,0.7319505999999999,0.93386286,0.8995098,0.85278183,0.34160805,1.0,0.0,0.6232133,0.6723201,0.6811425,cluster2_pred,,1
0.6550615,0.041888583,0.03962019,0.04445519,0.041958377000000005,0.03490363,0.07658894,0.6693385000000001,0.6100158,0.631951,0.6479292,0.6391013000000001,0.6371646,0.55836713,0.60168993,0.5965913,0.58778703,0.036049295,0.027861662000000002,0.5702341,0.5370984999999999,0.6395666999999999,0.6293244,0.7656656,0.87494236,0.09924792,0.09929650000000001,3.0,1.0,0.6543147,0.6479129,0.70385915,cluster2_pred,,2
0.73117226,0.55395615,0.55145323,0.53051466,0.5244074000000001,0.5048468,0.076035246,0.4346439,0.44966727,0.38195145,0.33606329999999995,0.21279886,0.21911370000000002,0.16572979999999998,0.18277892,0.19635507,0.1779004,0.6393434,0.6363128,0.12541212,0.15230653,0.41546747,0.09719807,0.08157378400000001,0.07734105,0.6956163000000001,0.6855009,1.0,2.0,0.6436554,0.6426289,0.65844464,cluster2_pred,,3
