Label,col-0,col-1,col-2,col-3,col-4,col-5,col-6,col-7,col-8,col-9,col-10,col-11,col-12,col-13,col-14,col-15,col-16,col-17,col-18,col-19,col-20,col-21,col-22,col-23,col-24,col-25,direction,Cluster
0.45366332,0.5369674,0.54831827,0.5482703,0.5511743,0.5657754,0.08715941,0.5954789,0.60609585,0.604828,0.6756561,0.60311645,0.65327805,0.6492438,0.6563905,0.70393467,0.6706385,0.5654879,0.47644904,0.38252267,0.2730256,0.75226504,0.48494145,0.46780673,0.46011248,0.8190062,0.48646155,3.0,0.0
0.45503303,0.65615785,0.6609085,0.6594446,0.6415507,0.639347,0.21098521,0.44321722,0.5498622,0.686468,0.63780355,0.6215068,0.63327193,0.6189089,0.5751569,0.5561841,0.59794855,0.6639002,0.595236,0.48701355,0.43566594,0.671923,0.4991827,0.7887101,0.6224079,0.9038466,0.3816584,3.0,0.0
0.47092354,0.6100885,0.60278434,0.61776716,0.60813075,0.61023474,0.0564187,0.4172709,0.50155014,0.56313634,0.5765965,0.61310685,0.6421604,0.6947461,0.7051086,0.72398335,0.7030509,0.54418963,0.5743511,0.75960195,0.6739418,0.82099146,0.7507865,0.9002658,0.9535424,0.8674652,0.21331348,1.0,0.0
0.41760296,0.19144717,0.18128239,0.18439424,0.1754037,0.15412071,0.15976028,0.42339024,0.40288702,0.42535904,0.4546842,0.50900924,0.49907258,0.57271165,0.5562927,0.5081922,0.47086328,0.17984903,0.15259057,0.57939154,0.64618343,0.47222486,0.39305016,0.32174468,0.55312455,0.16323854,0.3646324,3.0,1.0
0.43938637,0.5159158,0.50675744,0.49045968,0.4790361,0.49733552,0.12748542,0.18007384,0.54923874,0.5935593,0.55870557,0.579313,0.5927433,0.6794035,0.69860196,0.6878951,0.7538723,0.42171127,0.4456343,0.64902943,0.51212835,0.88616294,0.55225134,0.54279345,0.6175882,0.7730076,0.68793106,3.0,0.0
0.40546304,0.6091732,0.5952647,0.59729046,0.59906256,0.59970254,0.09469596,0.3598024,0.37025046,0.49683735,0.5297514,0.52935994,0.5440238,0.49772298,0.47972596,0.46738085,0.44335383,0.66168576,0.6328161,0.4785724,0.49611792,0.53651685,0.3032989,0.5635173,0.53094006,0.8735489,0.32249543,2.0,2.0
0.616637,0.6943964,0.70287573,0.70443135,0.7098171,0.72212416,0.0765002,0.54973185,0.53535634,0.6022763,0.50513214,0.72792166,0.72575885,0.6989592,0.67129326,0.6819671,0.8422061,0.65012825,0.6734048,0.8425051,0.80233574,0.7584919,0.6827064,0.51280165,0.56308156,0.8901118,0.5853984,1.0,0.0
0.43201926,0.25882232,0.24824713,0.26019958,0.24876454,0.23862389,0.053021174,0.42332146,0.46021813,0.5458457,0.59045416,0.5496362,0.52641076,0.53560996,0.5486227,0.5194076,0.5697514,0.21952763,0.22926344,0.62496525,0.6441702,0.5778425,0.5248131,0.7923169,0.68282104,0.62564844,0.12927881,3.0,1.0
0.47612232,0.118376926,0.106645696,0.10714101,0.10112587,0.09311427,0.14838834,0.3893057,0.45399883,0.565801,0.56370753,0.55012536,0.46672714,0.46610996,0.4521654,0.46340957,0.5011171,0.10571723,0.13983376,0.39487258,0.38332558,0.56715536,0.31939042,0.49627882,0.32528818,0.25876454,0.33675632,1.0,1.0
0.49730447,0.16668364,0.17061275,0.16764054,0.18029445,0.15855509,0.1452433,0.5375502,0.578923,0.62018627,0.64632684,0.5974002,0.5292031,0.47166017,0.5410814,0.49948505,0.52965975,0.16570015,0.19187415,0.50187576,0.5437329,0.49672726,0.46126804,0.5692714,0.33563972,0.17538047,0.37705073,1.0,1.0
0.4406928,0.20146446,0.19784576,0.20559491,0.20632736,0.19724447,0.11048821,0.48512617,0.46857142,0.53067946,0.539591,0.5017505,0.5214499,0.53551686,0.53271234,0.53184134,0.5486924,0.14947392,0.2229593,0.74636525,0.80814,0.5326839,0.6095238,0.3275834,0.2633619,0.6255756,0.16191308,3.0,1.0
0.4425112,0.64395404,0.6309318,0.6428977,0.6274899,0.6108325,0.14012945,0.4114931,0.49410766,0.50643945,0.67176306,0.77021813,0.76828915,0.75244904,0.6215494,0.6261244,0.6927921,0.5766416,0.5674374,0.72825676,0.64681077,0.8033322,0.62077075,0.79693717,0.823489,0.80923927,0.7061923,3.0,0.0
0.49702775,0.6696837,0.66029876,0.6754744,0.669978,0.6464939,0.080361165,0.51383686,0.55217576,0.5743922,0.6017986,0.61283165,0.56308985,0.53246266,0.57529676,0.5651724,0.6143134,0.65776324,0.69354165,0.7689603,0.82153517,0.55729514,0.6845514,0.5098672,0.32074666,0.7346238,0.34943187,1.0,0.0
0.23076482,0.60286784,0.5883548,0.5873623,0.58989245,0.57317626,0.14395206,0.3617824,0.46984577,0.3662946,0.5272347,0.5697085,0.57913923,0.6519777,0.76445204,0.75604254,0.6261836,0.6524373,0.5171624,0.30914593,0.17952213,0.7687556,0.3854274,0.4419684,0.65454334,0.72369426,0.8330825,2.0,0.0
0.40471026,0.19185397,0.18727772,0.1929779,0.19420242,0.17574067,0.097089894,0.45701197,0.5440471,0.54227066,0.55728483,0.50627244,0.5105538,0.48910463,0.5242987,0.5194382,0.49025047,0.16905758,0.2296054,0.6118628,0.6743631,0.49037594,0.48235625,0.35945064,0.21036948,0.36285874,0.2154102,2.0,1.0
0.4663042,0.18676905,0.17838635,0.18682456,0.17616788,0.15923713,0.11937355,0.41878194,0.4296102,0.52173835,0.52942586,0.52408236,0.52673304,0.51415545,0.5044367,0.48651242,0.5093656,0.14219059,0.20045242,0.67253035,0.73299444,0.5127542,0.5204789,0.2549422,0.27834553,0.34380007,0.08691218,1.0,1.0
0.413601,0.24016069,0.22609492,0.2401365,0.23200363,0.2212226,0.099135436,0.44448572,0.47648132,0.48897317,0.5073816,0.47857332,0.5344443,0.56003714,0.5695197,0.55634683,0.5761029,0.18556267,0.26325095,0.709235,0.7456637,0.5702625,0.60605145,0.2721641,0.3507382,0.633304,0.12788874,3.0,1.0
0.56217515,0.5834435,0.57026726,0.56667864,0.5542309,0.556147,0.1452465,0.25551608,0.32693762,0.3840709,0.4054549,0.38711622,0.37161878,0.3663746,0.41763064,0.40587988,0.43778336,0.6543628,0.6070322,0.4057753,0.4429522,0.47652277,0.11637652,0.1406818,0.15968728,0.85452145,0.31636837,1.0,2.0
0.44266775,0.6033764,0.60085356,0.61518174,0.6049722,0.605444,0.04780823,0.4494338,0.48113236,0.47545797,0.4705983,0.46829864,0.42887536,0.4306921,0.42584497,0.44176787,0.44830465,0.6612382,0.65310556,0.4887971,0.52832234,0.49724576,0.2960067,0.10148152,0.079168044,0.87036425,0.29870388,3.0,2.0
0.3830543,0.4464558,0.43816686,0.4418532,0.4468388,0.44121847,0.124688774,0.49647564,0.4856595,0.5762326,0.5739916,0.5517446,0.6172499,0.5406943,0.5697578,0.595611,0.7474389,0.43073952,0.37245622,0.54826146,0.48175701,0.71977663,0.5090235,0.491839,0.4775185,0.717423,0.61667037,2.0,2.0
0.36146933,0.90033555,0.8918809,0.90971607,0.9023892,0.90438783,0.04329205,0.45979258,0.46857142,0.4576977,0.5088119,0.5523596,0.45190516,0.47077405,0.38966778,0.34783188,0.39182585,0.99445534,0.9595654,0.5900828,0.6876795,0.41607913,0.41266137,0.2953612,0.3400463,0.979409,0.569371,2.0,2.0
0.4373426,0.201617,0.19347629,0.20528467,0.19562888,0.1724583,0.138493,0.46705455,0.49363247,0.53939855,0.6040494,0.6524408,0.67896646,0.64527154,0.6525138,0.61734194,0.57966655,0.16272087,0.15003319,0.5613857,0.543771,0.62949985,0.52936697,0.8594712,0.9181573,0.17686674,0.31211585,3.0,1.0
0.16452597,0.6655141,0.6731023,0.6737163,0.6641703,0.6475624,0.20452897,0.46083906,0.48733166,0.5134154,0.5857399,0.60909414,0.63684946,0.57730496,0.5936604,0.6092073,0.60554695,0.6530003,0.62975466,0.7752622,0.80878353,0.59595054,0.6642418,0.5621612,0.7065009,0.8673835,0.38381842,2.0,0.0
0.4836652,0.115936145,0.1146733,0.11918921,0.12012835,0.10658042,0.25411108,0.50060195,0.5372979,0.600673,0.6103447,0.44611815,0.49232268,0.4998652,0.5147875,0.49025178,0.5156374,0.1124924,0.13789262,0.49538222,0.54741895,0.47512406,0.37964913,0.4568979,0.28699806,0.26920143,0.18413207,1.0,1.0
0.38825065,0.21341401,0.20846458,0.21288589,0.21743335,0.19699946,0.16480383,0.49736598,0.5330313,0.50377196,0.53982884,0.5547999,0.50381243,0.5827892,0.5774261,0.6218043,0.66365695,0.15905985,0.24042048,0.7177478,0.74470156,0.5911212,0.62427485,0.3852242,0.37098232,0.3850762,0.21003948,2.0,1.0
0.38057858,0.6643954,0.66212785,0.67226845,0.66743076,0.6782592,0.06002397,0.40283474,0.5891473,0.6534687,0.70609486,0.7329283,0.78541154,0.7319956,0.643074,0.5729515,0.5713233,0.6786457,0.5702801,0.5961587,0.5664744,0.66334856,0.5748777,0.9467162,0.925624,0.935368,0.54781103,2.0,0.0
0.43470442,0.1521916,0.14830811,0.1570919,0.15339544,0.1354909,0.12221814,0.46504143,0.5253262,0.5739598,0.648705,0.61607605,0.6535799,0.63971484,0.6282312,0.64561987,0.66376144,0.07264624,0.12289853,0.63979983,0.5853764,0.72432363,0.7004276,0.9039991,0.89062357,0.22590473,0.11133146,3.0,1.0
0.42235327,0.5861893,0.579311,0.59884167,0.5878547,0.5904993,0.10277587,0.43534386,0.47247717,0.5907509,0.6053887,0.62477726,0.66872424,0.640748,0.596421,0.5288901,0.6035865,0.5750806,0.58982635,0.6204995,0.577315,0.69678277,0.5932524,0.90642256,0.85073566,0.85802853,0.27203476,3.0,0.0
0.35999796,0.20675279,0.19662638,0.19370183,0.18727389,0.1648832,0.18656972,0.30028903,0.29900342,0.3919098,0.44507608,0.47096586,0.5018929,0.4548177,0.44739506,0.4406178,0.4795279,0.16343625,0.24014983,0.72989166,0.8096953,0.49291027,0.4298252,0.4627512,0.5839338,0.1565388,0.27689654,2.0,1.0
0.53696,0.21183771,0.20892186,0.2033197,0.19883844,0.18145476,0.20069037,0.5159251,0.49230304,0.5138,0.48957184,0.4478353,0.48503584,0.4920096,0.49831265,0.5007657,0.5069537,0.19754498,0.2293908,0.5059436,0.5436822,0.5059058,0.354861,0.2715611,0.2124558,0.40328193,0.22290625,1.0,1.0
0.39720908,0.52872986,0.5704705,0.5356533,0.57471085,0.5850447,0.09427088,0.6272348,0.60375214,0.6049195,0.6127263,0.811341,0.66087836,0.5712328,0.48868394,0.44650975,0.41241792,0.70061755,0.48574284,0.06334079,0.031013964,0.5063875,0.34452805,0.7762653,0.67796427,0.88704556,0.98065966,2.0,0.0
0.35475352,0.8330113,0.8204451,0.8376338,0.8213867,0.79150873,0.034122255,0.35751277,0.42067006,0.45687917,0.5027323,0.49834254,0.5305221,0.48682806,0.5855635,0.5176041,0.59602654,0.88494754,0.8024088,0.68542,0.75343096,0.50212276,0.48401102,0.34783003,0.43942377,0.7861221,0.36761218,2.0,2.0
0.44159484,0.47737214,0.46936285,0.4867883,0.4738906,0.4559062,0.03369716,0.45831177,0.5317383,0.61711425,0.630454,0.5729925,0.6327287,0.60437596,0.6111163,0.6265864,0.68612844,0.44546434,0.42713642,0.7344998,0.76288486,0.5934565,0.7076057,0.7151115,0.5320314,0.6814201,0.22184776,3.0,0.0
0.34345412,0.58598596,0.5719948,0.586535,0.5809261,0.5820824,0.03477427,0.44492385,0.40576777,0.47294232,0.4807062,0.44991127,0.5382981,0.5004368,0.48308972,0.44451517,0.4701464,0.6190637,0.63042,0.50529313,0.5063733,0.57639223,0.34888378,0.2214331,0.26332483,0.8449786,0.30586392,2.0,2.0
0.3851503,0.6651073,0.6511533,0.65778995,0.6500076,0.6275253,0.1720879,0.34436786,0.46603015,0.48523548,0.3508842,0.2996253,0.41828156,0.40066484,0.43805516,0.4594241,0.4818047,0.69618607,0.7130262,0.6941167,0.79837483,0.43487665,0.4305209,0.2158506,0.21843255,0.7195092,0.45599324,2.0,2.0
0.3914767,0.5629004,0.56122345,0.5667821,0.56615204,0.55382407,0.085276864,0.48969325,0.5146177,0.5534421,0.5798431,0.5609411,0.53790563,0.50143886,0.5330453,0.5240902,0.5094535,0.62687945,0.5452684,0.4058532,0.4063691,0.54723567,0.34748298,0.44916052,0.31531832,0.8120471,0.29823917,2.0,2.0
0.48700324,0.47513476,0.48033738,0.47898027,0.46762437,0.48605222,0.109602876,0.43938637,0.6299057,0.7198425,0.72406894,0.7505576,0.7445701,0.7026033,0.74994844,0.7625224,0.77439004,0.42867848,0.3924821,0.473479,0.32080242,0.86318743,0.58729625,0.8546579,0.8311724,0.7750243,0.52669764,1.0,0.0
0.46360955,0.18448086,0.17249265,0.17374219,0.18126237,0.1719896,0.1095038,0.41259578,0.44161052,0.45318934,0.4566352,0.41949788,0.46460578,0.4820245,0.49449858,0.5060611,0.5566187,0.1613055,0.22432503,0.5329658,0.5275127,0.59740597,0.3308057,0.20813733,0.1820405,0.485052,0.13840307,1.0,1.0
0.47360012,0.28994206,0.27908748,0.2941207,0.28641292,0.2738927,0.026902117,0.4469663,0.44017133,0.50421154,0.5595886,0.5556579,0.6121379,0.6261501,0.5880407,0.5757951,0.5862495,0.24625568,0.26104102,0.6757901,0.68644786,0.6097814,0.6051218,0.71146333,0.8405431,0.67121327,0.09003143,1.0,1.0
0.49402043,0.13352996,0.11975409,0.10471068,0.102857985,0.09470924,0.3342517,0.23811033,0.39611828,0.34152332,0.36323044,0.32571334,0.3512635,0.3566711,0.36094585,0.3129568,0.34109256,0.13880001,0.18209375,0.4436295,0.51497227,0.4221579,0.16566652,0.15376042,0.1455029,0.25706396,0.3086739,1.0,1.0
0.44390783,0.21692263,0.20480645,0.21805678,0.21300115,0.18820944,0.16428606,0.43785813,0.4651358,0.52511907,0.5736526,0.54559565,0.5747706,0.62855625,0.609293,0.6481247,0.6519556,0.14816071,0.19101523,0.6662805,0.63957703,0.67892843,0.56986725,0.6011907,0.70040554,0.20224012,0.36604074,3.0,1.0
0.43477982,0.7776874,0.779494,0.7902683,0.78175145,0.78113675,0.06887415,0.5258652,0.5998474,0.63219523,0.6480298,0.5926916,0.67519605,0.67212486,0.7425085,0.7873496,0.85584295,0.72246486,0.69434035,0.84181654,0.782073,0.796025,0.81325495,0.739855,0.75440747,0.91148597,0.290083,3.0,0.0
0.45524645,0.9771179,0.9647393,0.98593515,0.9760558,0.976546,0.0755797,0.46263433,0.5746876,0.6546539,0.72849816,0.6922749,0.7459927,0.8357725,0.83208555,0.79724973,0.84462583,0.91515917,0.8946414,0.866374,0.74533105,0.9216909,0.8528672,0.9335347,0.92438185,0.95140743,0.4205248,3.0,0.0
0.38799027,0.24992374,0.24570674,0.2545633,0.24693052,0.23690583,0.087846585,0.4442487,0.5268323,0.61799854,0.6630155,0.6521695,0.6264005,0.5972349,0.5771884,0.5575485,0.60262007,0.19400775,0.21553193,0.6283716,0.6114019,0.6486299,0.6504811,0.92694885,0.7882325,0.66352993,0.09922599,2.0,1.0
0.40419433,0.6559544,0.65349054,0.6686488,0.6558153,0.65318197,0.06357491,0.5017437,0.4910568,0.5692898,0.5634268,0.5955302,0.5856389,0.58531415,0.5911709,0.6228281,0.6999049,0.6569378,0.6169164,0.58863556,0.53750247,0.70241755,0.5600175,0.44084257,0.43461764,0.89361006,0.36163697,2.0,0.0
0.38332352,0.16129361,0.15242353,0.1541445,0.16175047,0.14741567,0.15243468,0.40223083,0.42704064,0.513206,0.5145074,0.5160069,0.51253176,0.48495993,0.4950133,0.44353577,0.4293937,0.16792442,0.19695102,0.46669808,0.4939059,0.5142746,0.25334826,0.41274458,0.2978843,0.3373517,0.17199168,2.0,1.0
0.42719287,0.19439644,0.18306066,0.19592531,0.19221556,0.18051869,0.14907871,0.4559774,0.5103258,0.5556662,0.5394948,0.56609356,0.5614459,0.5859801,0.56370705,0.5464256,0.59309787,0.13938582,0.20266369,0.664747,0.6837968,0.59024125,0.5969368,0.5296576,0.5048891,0.4008611,0.14685805,3.0,1.0
0.45422536,0.18910812,0.174779,0.17953357,0.17326401,0.1535578,0.124986015,0.38801163,0.47688234,0.53060454,0.48541367,0.471253,0.49251443,0.5116518,0.5161882,0.4938205,0.5490698,0.15345415,0.20719503,0.5511189,0.55694133,0.58118623,0.41273504,0.32979724,0.2861591,0.18011314,0.30151692,3.0,1.0
0.509778,0.5061528,0.49629104,0.50917834,0.50145185,0.49910283,0.078322016,0.43252993,0.5403999,0.7289208,0.6392053,0.5025607,0.54756355,0.5072325,0.55652815,0.60279834,0.64781,0.4994017,0.5151118,0.61817634,0.63962287,0.57145554,0.52698755,0.7453385,0.47153684,0.9615649,0.417103,1.0,0.0
0.37062442,0.19348115,0.18814145,0.19695951,0.18905696,0.17604354,0.17024371,0.52349293,0.5322455,0.595069,0.6214667,0.6069459,0.65933317,0.6438313,0.662387,0.61816937,0.65396047,0.12021874,0.14029755,0.65647966,0.63594025,0.66406214,0.6765498,0.72356,0.81203294,0.3824709,0.17595977,2.0,1.0
0.19347675,0.7150412,0.70124984,0.7096023,0.69157875,0.7041496,0.10155174,0.3272871,0.26997447,0.31566,0.48348475,0.54821414,0.5445365,0.5462843,0.47161767,0.63158244,0.6581592,0.67338663,0.7439201,0.87001866,0.8835988,0.66322106,0.5532862,0.42870188,0.65541965,0.8783923,0.59177655,2.0,0.0
0.4387399,0.76670396,0.75378525,0.7685506,0.7555657,0.7556049,0.028397923,0.3742469,0.5229079,0.61242175,0.7325701,0.781058,0.8230006,0.8145665,0.77704334,0.7588626,0.7775728,0.71467364,0.66771424,0.76413417,0.6739192,0.8311525,0.75637954,0.93313885,0.9689297,0.9089269,0.3205243,3.0,0.0
0.6075822,0.6937862,0.6857027,0.6529293,0.6710988,0.67468876,0.14134079,0.37869382,0.22000486,0.182375,0.19437757,0.09484354,0.027348392,0.14016917,0.15796147,0.10065109,0.09082429,0.86912847,0.80533904,0.4143829,0.6769976,0.044454876,0.11300928,0.052326474,0.055344503,0.89016616,0.6394034,1.0,2.0
0.40661532,0.63144517,0.6353013,0.62945336,0.6404299,0.61944413,0.14280464,0.4452343,0.3854848,0.33051142,0.3748518,0.42771557,0.39509797,0.44698706,0.43210915,0.34873018,0.35683662,0.7466905,0.71216553,0.3356048,0.3537608,0.4918562,0.22290975,0.23688301,0.37095916,0.75749063,0.53100365,2.0,2.0
0.5212472,0.47966033,0.48607868,0.4879776,0.4937592,0.47632414,0.13296364,0.5250904,0.58841306,0.6420079,0.6665422,0.6575604,0.6937883,0.6269675,0.6412374,0.6044944,0.56181467,0.50517875,0.44607937,0.42421433,0.36824942,0.6617256,0.48837408,0.8459789,0.7324802,0.734562,0.33244613,1.0,0.0
0.425124,0.98138916,0.96961683,0.9912094,0.97992766,0.9803386,0.07219816,0.45524645,0.50743675,0.6466233,0.67905027,0.7171103,0.7052627,0.7222237,0.8354768,0.8327581,0.83553225,0.9196957,0.90878177,0.89496523,0.7860428,0.90701616,0.8614693,0.9888437,0.9597313,0.9581714,0.39929414,3.0,0.0
0.39937037,0.14512357,0.13159232,0.12684211,0.11849811,0.11359499,0.39956853,0.22770305,0.27528265,0.263104,0.3707676,0.38826752,0.40048397,0.42186135,0.44494414,0.47837463,0.49044222,0.1464576,0.19141874,0.45789862,0.4660629,0.5483177,0.19248395,0.24913397,0.51200527,0.45067894,0.26958656,2.0,1.0
0.5548927,0.7248043,0.71151304,0.6911939,0.7002394,0.70314264,0.090905316,0.3010731,0.42982808,0.3846084,0.3768724,0.43760228,0.5097697,0.49692646,0.5922246,0.6545793,0.6285813,0.7288821,0.7441199,0.5670625,0.49807107,0.7302903,0.4367006,0.30052194,0.46065888,0.8949269,0.5797901,1.0,2.0
0.4501297,0.96888036,0.9615893,0.98200524,0.9644403,0.96516854,0.06222293,0.4609299,0.6100602,0.7814499,0.7971974,0.7660814,0.72258145,0.67160577,0.661484,0.6185163,0.69357675,0.9690436,0.8805976,0.7612587,0.76561713,0.647923,0.704885,0.88564587,0.7107685,0.990829,0.55328006,3.0,0.0
0.4476703,0.6415133,0.6295092,0.644449,0.63013905,0.62511516,0.037919298,0.36410025,0.4517642,0.48239422,0.501923,0.5711801,0.55134964,0.52956414,0.576362,0.59142196,0.7601527,0.612833,0.58286136,0.77481,0.77582604,0.65848935,0.5850975,0.45426908,0.6016419,0.97452414,0.41710156,3.0,0.0
0.27501652,0.32533312,0.34224167,0.3241636,0.3487187,0.35029936,0.17134638,0.51017267,0.46814108,0.45475084,0.59857863,0.51707864,0.47161445,0.54200715,0.6111215,0.59926975,0.7422515,0.30414248,0.3793758,0.52988565,0.42684555,0.7846351,0.48348328,0.41709888,0.49746117,0.7829182,0.74278384,2.0,2.0
0.44598487,0.10993594,0.10588357,0.11065722,0.113148905,0.10587189,0.14802398,0.5216163,0.52523994,0.6196012,0.7155129,0.6493662,0.71063554,0.6763682,0.68352044,0.6808637,0.7645934,0.0,0.069714695,0.6347208,0.5243306,0.8306931,0.65158886,0.89867324,0.8812249,0.35351762,0.31485334,3.0,1.0
0.40309978,0.76100886,0.7469769,0.76999843,0.75648266,0.7564989,0.010771074,0.4387399,0.4268409,0.58423334,0.63037026,0.7107247,0.7773499,0.7799769,0.807683,0.7691489,0.78902006,0.71581304,0.67522496,0.7869503,0.7039027,0.8242719,0.75906897,0.89662796,0.947181,0.9108149,0.29538575,2.0,0.0
0.4466159,0.12163127,0.115587845,0.12425667,0.1218605,0.10816044,0.08179305,0.43867728,0.46816498,0.5459634,0.5616599,0.55833465,0.58834094,0.57554066,0.56130725,0.5383716,0.5709293,0.077025265,0.11424326,0.575853,0.5668185,0.6173559,0.52041966,0.62518936,0.7026555,0.28551075,0.008711965,3.0,1.0
0.44216967,0.20670192,0.19469567,0.1904959,0.18493043,0.16869006,0.14969237,0.35483488,0.34438792,0.4441,0.4924018,0.46848306,0.46535403,0.46791142,0.50808924,0.48177165,0.51935863,0.1676237,0.22542123,0.56497186,0.5689193,0.5890149,0.34104416,0.28109112,0.31477824,0.3630108,0.195192,3.0,1.0
0.27183524,0.61873287,0.6188395,0.62717825,0.62168217,0.61857426,0.10195445,0.4701699,0.57822436,0.6870485,0.64811325,0.6016645,0.61221814,0.59580255,0.6388134,0.61902297,0.6756244,0.6216598,0.5651797,0.5921408,0.56189865,0.6632021,0.61057144,0.796361,0.589951,0.96519303,0.41227695,2.0,0.0
0.44482064,0.3410963,0.33380756,0.31992343,0.3197819,0.32244292,0.17480783,0.27501652,0.40548247,0.40947446,0.38081896,0.48579553,0.44293302,0.40137053,0.4726819,0.52426666,0.550896,0.30346027,0.37804943,0.5159776,0.44350067,0.72147363,0.40640086,0.32113916,0.4167086,0.7772844,0.7580396,3.0,2.0
0.36262205,0.61181736,0.6013617,0.61456126,0.59855306,0.5992076,0.047731522,0.38404253,0.39147335,0.454497,0.5016726,0.4846046,0.5949186,0.58157915,0.6041761,0.6510967,0.59402895,0.62872654,0.56545174,0.52750933,0.48000294,0.6768332,0.41631228,0.33570233,0.57714874,0.85871905,0.3184879,2.0,2.0
0.34890118,0.5533408,0.5500457,0.5608873,0.5452646,0.5323366,0.08086616,0.3865663,0.3889836,0.4137567,0.4539776,0.49408692,0.49073648,0.48312005,0.41562057,0.43630573,0.4527236,0.6280886,0.59686697,0.47062874,0.53582925,0.4422131,0.3077603,0.33316845,0.5040059,0.8598858,0.5096829,2.0,2.0
0.51463854,0.10073225,0.09186059,0.09876418,0.094044514,0.08152206,0.15487655,0.4154461,0.41728866,0.53276205,0.54112893,0.5115165,0.48090312,0.48960045,0.4943157,0.45706537,0.4595475,0.109209254,0.09338427,0.3679113,0.36884776,0.53488463,0.19556531,0.4228527,0.3659388,0.186959,0.17654102,1.0,1.0
0.40924582,0.89453876,0.91108626,0.90392464,0.91420853,0.9141485,0.121304035,0.6748415,0.77816814,0.7565993,0.8277431,0.6969409,0.77260923,0.74710226,0.8045832,0.7061102,0.71415246,0.9143001,0.81438714,0.6381599,0.5993018,0.6938119,0.6477562,0.6938614,0.6066257,0.98469776,0.6962307,2.0,0.0
0.31267324,0.6448693,0.63662225,0.6474481,0.63013905,0.6415833,0.043039553,0.38286158,0.506717,0.5622312,0.60679924,0.5847215,0.658543,0.6124932,0.52914155,0.5410243,0.64758706,0.6111263,0.57330316,0.63074225,0.56144613,0.75024605,0.55311096,0.7526218,0.7642994,0.89561176,0.46482435,2.0,0.0
0.64358085,0.582935,0.58378214,0.58043325,0.5941718,0.57902557,0.15028366,0.62696314,0.6222122,0.70992523,0.5338072,0.5462448,0.60732126,0.604984,0.60095626,0.61915064,0.62006694,0.5745835,0.53288394,0.5869068,0.543622,0.6867588,0.55748516,0.44296965,0.33367828,0.8248878,0.7153259,1.0,2.0
0.34568375,0.8519272,0.84158117,0.84704477,0.8513424,0.85266006,0.096591294,0.30766144,0.2409533,0.27463928,0.18623783,0.25930062,0.28457168,0.44520524,0.4862808,0.5124247,0.57180864,0.90604055,0.9433988,0.8670974,0.98100096,0.46889034,0.45920104,0.13064875,0.3052122,0.995612,0.6471617,2.0,2.0
0.5124967,0.15615787,0.14663145,0.16019443,0.15334453,0.14302991,0.052938074,0.44598573,0.5112266,0.5178865,0.5557412,0.54273885,0.55824274,0.5543577,0.58680797,0.54714596,0.6138272,0.12201944,0.17375825,0.5861219,0.60653985,0.5636894,0.4922312,0.4259134,0.48313528,0.37914264,0.19250382,1.0,1.0
0.35619995,0.48011795,0.48399553,0.47980765,0.47710016,0.4954214,0.08539513,0.48700324,0.51397455,0.723682,0.75836086,0.7325505,0.7766193,0.7362982,0.7230901,0.76412755,0.8154258,0.42590594,0.40215775,0.5208639,0.35979757,0.8937765,0.62131035,0.8522025,0.85504943,0.77333564,0.53316104,2.0,0.0
0.4080278,0.68697244,0.683772,0.66885567,0.65530586,0.66413146,0.13622692,0.27821058,0.16277403,0.25983804,0.14949712,0.23105015,0.30168384,0.44240355,0.33188668,0.3557212,0.3751746,0.8528691,0.76515955,0.057944812,0.021963201,0.5117934,0.1897764,0.13649823,0.32794267,0.906423,0.9011307,2.0,2.0
0.41418377,0.15854774,0.15110256,0.14980091,0.15624839,0.136753,0.1795062,0.45232448,0.44512728,0.4038411,0.36454022,0.45056835,0.43806884,0.4540582,0.41141737,0.40014645,0.42654923,0.16388336,0.2139383,0.52195054,0.595814,0.4411189,0.33436638,0.09336198,0.14543183,0.17404453,0.38589624,3.0,1.0
0.4821912,0.1632259,0.1545575,0.16128032,0.15191807,0.1417113,0.1565002,0.33495632,0.40798867,0.4590521,0.5194051,0.5759154,0.74014586,0.6610038,0.58816224,0.6041648,0.6988899,0.046845105,0.103788964,0.8319841,0.80502254,0.7298248,0.6176094,0.74609125,0.9078207,0.4077045,0.3842546,1.0,1.0
0.42080253,0.32319736,0.32171527,0.31547648,0.32181972,0.3244047,0.10830523,0.44482064,0.3552689,0.4751054,0.45315814,0.38850933,0.5100675,0.45864734,0.41653663,0.4628061,0.5551015,0.30364296,0.375286,0.50755244,0.45487395,0.68073606,0.41263762,0.3217563,0.35393545,0.78106713,0.7462785,3.0,2.0
0.4257458,0.30001017,0.2887918,0.30203217,0.29741707,0.28585625,0.08371714,0.45436096,0.49830532,0.5621079,0.59617203,0.5649701,0.56914824,0.5801835,0.5880001,0.55129826,0.5795578,0.2572695,0.27345955,0.67267853,0.6911306,0.5938063,0.6609722,0.79019904,0.66233677,0.69544566,0.04688176,3.0,1.0
0.4616928,0.54469645,0.5654913,0.5516831,0.5701258,0.56710315,0.2561662,0.7656901,0.80428517,0.95621806,0.97835964,0.83179975,0.87796867,0.8276625,0.8005845,0.83514524,0.8047584,0.49958533,0.4470432,0.6290378,0.5513639,0.76588154,0.73344225,1.0,0.7968186,0.98446876,0.5081348,1.0,0.0
0.49114764,0.5544595,0.5457779,0.561301,0.5481175,0.5502075,0.0957475,0.46803597,0.4776671,0.5408528,0.5844123,0.54497194,0.5510217,0.53327364,0.5754565,0.5123246,0.49455145,0.58482134,0.5711797,0.45013115,0.42850462,0.6033975,0.3737962,0.52944535,0.52691466,0.8397241,0.3039695,1.0,2.0
0.39965612,0.69998986,0.6879382,0.69377935,0.67700845,0.68045914,0.13729444,0.3118389,0.47118384,0.51858926,0.5379198,0.49931985,0.5276729,0.5329299,0.5305956,0.3706153,0.32677665,0.7704869,0.7247124,0.33386278,0.32798395,0.53767,0.30224958,0.5632499,0.49628186,0.8810299,0.54307055,2.0,2.0
0.51196575,0.84491,0.84026015,0.855525,0.84145904,0.8429932,0.029040352,0.38654557,0.52918214,0.6207052,0.6249643,0.63826275,0.6413129,0.6550306,0.697527,0.68944025,0.7165557,0.7874227,0.7940376,0.9282022,0.90081686,0.7599066,0.77564484,0.8504899,0.82154727,0.95276135,0.51304185,1.0,0.0
0.44029614,0.5624937,0.56894624,0.5708154,0.5722655,0.5581129,0.11083979,0.5062126,0.49623588,0.53774494,0.45361063,0.4974963,0.5044901,0.52845275,0.4634167,0.40918934,0.40293732,0.6302828,0.6085349,0.5277805,0.61063147,0.42556247,0.40370777,0.31784454,0.2963777,0.8736184,0.5991649,3.0,2.0
0.45436957,0.14837791,0.147546,0.15362737,0.15100107,0.13068783,0.13434438,0.45148376,0.48207328,0.58344615,0.59031075,0.5917445,0.603568,0.59789175,0.60876286,0.60243493,0.6629289,0.0861141,0.124737896,0.60753644,0.56388724,0.69373596,0.6092488,0.83966607,0.8433123,0.03435436,0.117937714,3.0,1.0
0.43867815,0.124733075,0.110557884,0.11929261,0.117428266,0.10411748,0.10079105,0.42809227,0.4878875,0.5542285,0.54812616,0.55214584,0.5638512,0.53757566,0.5416305,0.5213445,0.5260979,0.0766195,0.1408527,0.5546916,0.55137485,0.5998948,0.45180112,0.56133014,0.3877994,0.29510462,0.054953434,3.0,1.0
0.4219956,0.57978237,0.56935275,0.5689539,0.5585103,0.54651594,0.13055053,0.37482858,0.46004397,0.50681263,0.49139518,0.4922981,0.5510573,0.54498065,0.53380954,0.57919616,0.5627228,0.58681315,0.543594,0.48761722,0.44786227,0.64975375,0.38072944,0.35595345,0.40347087,0.79060227,0.28833917,3.0,2.0
0.5822661,0.17532799,0.17437252,0.16608925,0.16521469,0.14488265,0.20871274,0.39340425,0.38105878,0.34398597,0.3292516,0.35715947,0.39858782,0.43873566,0.4565705,0.39401445,0.4030308,0.17101644,0.23266175,0.644388,0.7631591,0.39176804,0.32812455,0.19976991,0.31887358,0.15793985,0.3505048,1.0,1.0
0.43010604,0.30789182,0.29687023,0.30704793,0.3046003,0.29260388,0.0895022,0.41457337,0.5581916,0.5931145,0.6292939,0.5726416,0.5675502,0.5378084,0.5228505,0.4906446,0.5409166,0.28068483,0.31793737,0.5748904,0.5844906,0.58113194,0.50804514,0.63192457,0.38427725,0.6758317,0.15559262,3.0,1.0
0.7922115,0.47289738,0.4671273,0.46243343,0.46039018,0.47889942,0.10259689,0.4170116,0.3962794,0.49756736,0.52822405,0.6439267,0.6759406,0.65288955,0.68912256,0.6758581,0.695018,0.42209974,0.4226143,0.56467575,0.43087608,0.85452676,0.53713006,0.6391806,0.7585121,0.7749125,0.5467395,1.0,0.0
0.48944676,0.7207363,0.7315314,0.7304928,0.7350858,0.7424186,0.13156053,0.66139764,0.44494823,0.5706235,0.58323085,0.6907979,0.546502,0.52627987,0.55610675,0.4101413,0.2972058,0.93588924,0.7380275,0.020093665,0.05187699,0.3696176,0.28631508,0.5666448,0.5679535,0.9192565,0.8830789,1.0,2.0
0.4023951,0.13037734,0.12158317,0.12735924,0.12318504,0.113425784,0.14638753,0.444067,0.4899168,0.5822887,0.6282861,0.5836636,0.60781467,0.6276325,0.6121669,0.5985427,0.5447373,0.090260446,0.093732856,0.45720693,0.40328327,0.6678244,0.44487992,0.92143357,0.87024945,0.2835356,0.29467192,2.0,1.0
0.46702787,0.68473506,0.6870237,0.6990537,0.6940241,0.69560015,0.10452098,0.5366129,0.5763743,0.6330361,0.5762641,0.5651848,0.57431746,0.57135296,0.56827563,0.56024295,0.5880193,0.7307297,0.6995554,0.63118756,0.7023439,0.47956324,0.5814667,0.48738,0.32923198,0.9127054,0.24647492,1.0,2.0
0.51487845,0.47289738,0.47291946,0.47867006,0.47934175,0.5010502,0.18787695,0.47167102,0.57657623,0.67094696,0.77184945,0.70073515,0.76714796,0.7251604,0.7288329,0.732575,0.8514522,0.38846454,0.40598938,0.79676896,0.72011566,0.81492907,0.7540009,0.9193527,0.89547247,0.8146792,0.40211278,1.0,0.0
0.46159977,0.39301336,0.38298953,0.39185062,0.38274994,0.36981854,0.081364766,0.4118644,0.4761945,0.5612523,0.58219784,0.6096272,0.60742897,0.62282,0.6263008,0.6463977,0.71980137,0.31824425,0.33700085,0.7630262,0.735316,0.7102948,0.7193023,0.6161732,0.7214508,0.69218767,0.22921008,1.0,1.0
0.48350886,0.112275,0.099735826,0.10621025,0.09842579,0.08550606,0.27656093,0.39724392,0.40228948,0.45232967,0.47314885,0.46573237,0.48670813,0.52655727,0.5198641,0.52471375,0.53018427,0.07022415,0.13100526,0.49476403,0.46399248,0.6346058,0.29474977,0.2217072,0.4267743,0.17843646,0.11775886,1.0,1.0
0.39520964,0.5230347,0.5098059,0.51548684,0.5011462,0.49485904,0.08255693,0.3200051,0.36541563,0.5117009,0.4967089,0.49108303,0.42405188,0.44681552,0.48950914,0.49202812,0.49768314,0.47274622,0.49770603,0.80781907,0.87362164,0.5436085,0.5238742,0.40744632,0.36561096,0.7465771,0.47466144,2.0,2.0
0.39165485,0.16953118,0.15943505,0.1635038,0.15869373,0.152761,0.07878226,0.3943647,0.5131195,0.60582906,0.6245201,0.57911944,0.5582935,0.56447184,0.58618313,0.5913366,0.6430375,0.07926947,0.13102381,0.66732275,0.63459384,0.69086367,0.6084929,0.77742,0.60396755,0.6115607,0.2181385,2.0,1.0
0.40628546,0.18163328,0.19566102,0.18268783,0.19532321,0.18696798,0.30695644,0.72164524,0.5997178,0.7039479,0.68084,0.63547736,0.69588387,0.69163984,0.690512,0.6574012,0.65833664,0.09045491,0.14217229,0.6971911,0.67137855,0.6866121,0.69104886,0.5945521,0.5902648,0.61497724,0.33517808,2.0,1.0
0.439068,0.21570225,0.20749927,0.22022855,0.2169239,0.20714022,0.06787695,0.46534836,0.48189437,0.5619079,0.56946003,0.566113,0.600488,0.57673216,0.6159024,0.59032637,0.752045,0.12348504,0.17345151,0.8121482,0.8135273,0.66914564,0.718391,0.817471,0.7900494,0.61887056,0.20488231,3.0,1.0
0.49501243,0.66185296,0.64708877,0.6554113,0.65336996,0.63365537,0.09324171,0.47013593,0.5526742,0.5348469,0.6425207,0.5659661,0.54014695,0.5428612,0.5196636,0.52027166,0.6204745,0.62839675,0.6201061,0.6678313,0.62853026,0.7036905,0.5439114,0.65264237,0.50415635,0.7575044,0.72051364,1.0,0.0
0.5159743,0.11324114,0.11172648,0.11768965,0.11951703,0.11454292,0.18130244,0.47332603,0.47271907,0.37872055,0.38797694,0.32397866,0.40276843,0.4314774,0.42883882,0.41771686,0.45665568,0.14078051,0.1839459,0.4068909,0.43975177,0.48518407,0.22630638,0.09291749,0.15466337,0.46240607,0.2575861,1.0,1.0
0.4470419,0.2546019,0.24194697,0.2412224,0.23643586,0.23018436,0.16676629,0.31530154,0.4398008,0.33862826,0.31430444,0.31395856,0.35190353,0.39344954,0.43062443,0.43888897,0.42212096,0.28192833,0.31233287,0.4631617,0.52886856,0.43896568,0.2295208,0.090705246,0.1368085,0.64394385,0.24936908,3.0,1.0
0.44761166,0.37953827,0.3669343,0.3716324,0.35921335,0.3604025,0.08804155,0.3576839,0.5359527,0.6009655,0.69614524,0.66593134,0.6752264,0.57508326,0.612148,0.56333095,0.54327357,0.3124443,0.29775384,0.58035433,0.5154251,0.7265004,0.5226448,0.87449783,0.8277802,0.8047124,0.6933984,3.0,0.0
0.4119751,0.22460087,0.20993802,0.21903923,0.20968972,0.2003843,0.053398322,0.38975772,0.43901083,0.5228212,0.53743076,0.54426956,0.5468274,0.549472,0.5713846,0.5472515,0.6112914,0.1320585,0.1835379,0.802724,0.82560325,0.624823,0.6577335,0.72014093,0.8120248,0.6194545,0.17860046,3.0,1.0
0.4849875,0.12173295,0.11015141,0.11980973,0.110856354,0.09812282,0.09980663,0.41036174,0.42261818,0.49086097,0.48221847,0.4793437,0.52607125,0.55643123,0.56956667,0.55996406,0.58151525,0.10071441,0.10328743,0.50786006,0.5171987,0.5612491,0.32793364,0.28384987,0.45694855,0.26982108,0.14691637,1.0,1.0
0.28698754,0.50869524,0.51122856,0.513315,0.5125579,0.5098173,0.09210068,0.5304907,0.6728723,0.67730176,0.7503649,0.71684647,0.72318584,0.7379117,0.7767124,0.71163154,0.7397435,0.41062197,0.4305778,0.8594549,0.817482,0.7671246,0.79899305,0.835512,0.8364053,0.9440352,0.5007793,2.0,0.0
0.4505859,0.16495475,0.15171222,0.1640726,0.1582862,0.14138706,0.16289254,0.38469124,0.4571847,0.5371076,0.56429654,0.5541002,0.5567135,0.55161154,0.5655451,0.5524222,0.5930347,0.090454675,0.17602997,0.69510585,0.6933017,0.6396852,0.6443088,0.6599541,0.6239812,0.23946103,0.07789564,3.0,1.0
0.29437935,0.44360828,0.4318667,0.4376131,0.4238117,0.42060974,0.12937436,0.35008702,0.42320013,0.5655568,0.46340984,0.45131144,0.5120687,0.5369262,0.43070164,0.40196556,0.4298129,0.49821708,0.45198506,0.36062905,0.39224815,0.47350797,0.3022496,0.4425356,0.4129806,0.7483481,0.5887624,2.0,2.0
0.594249,0.11288521,0.10009148,0.107192725,0.10459013,0.10065523,0.08047623,0.40206876,0.546965,0.5922897,0.64073956,0.6068799,0.5733529,0.57935107,0.5010641,0.44854918,0.48891798,0.09020996,0.12509431,0.39873126,0.37142083,0.59872377,0.3785835,0.7804477,0.56090796,0.51655006,0.23256972,1.0,1.0
0.61055183,0.5238483,0.51427704,0.51000565,0.50410104,0.4914371,0.16098441,0.40434822,0.34114224,0.17595163,0.24342278,0.23287833,0.22102818,0.2775222,0.28749698,0.20865446,0.26641306,0.59214,0.62368727,0.41936836,0.5026426,0.39177284,0.23225851,0.07885664,0.16138028,0.7572613,0.78183997,1.0,2.0
0.33544448,0.6841249,0.68844634,0.6840581,0.69219005,0.6686607,0.117328,0.5053721,0.4855277,0.43636423,0.44740245,0.43620348,0.4573617,0.5534942,0.5713831,0.51310235,0.56583685,0.7666927,0.72594255,0.407832,0.38538563,0.59211296,0.3507559,0.21736595,0.37696135,0.7565199,0.46109784,2.0,2.0
0.47645923,0.43272656,0.43003765,0.43999168,0.4349177,0.42979547,0.12104514,0.40251547,0.43354237,0.5638299,0.49903232,0.52539694,0.5877588,0.70530564,0.76829183,0.7345548,0.61557436,0.43510005,0.36014336,0.5069539,0.4320442,0.7234198,0.46836025,0.564222,0.6831101,0.71181196,0.65052736,1.0,0.0
0.39811265,0.6326655,0.62635916,0.6385542,0.6326863,0.6275773,0.048015982,0.4476703,0.4259064,0.5220182,0.5201748,0.5024869,0.589961,0.5525155,0.5400632,0.56945556,0.624223,0.61525124,0.5880996,0.7691162,0.7812987,0.6352265,0.59395677,0.41359362,0.5102685,0.97745985,0.4029161,2.0,0.0
0.5060693,0.548561,0.58012396,0.54506433,0.580111,0.5638567,0.29903316,0.7470968,0.71493286,0.7239545,0.7086072,0.6877682,0.6153249,0.6258952,0.56051403,0.488826,0.54529166,0.63373274,0.50192267,0.33281687,0.3271677,0.53690904,0.47002587,0.40400276,0.23893453,0.74331844,0.90988475,1.0,2.0
0.43814322,0.70537984,0.7105986,0.71498007,0.7103265,0.7044121,0.11932241,0.417356,0.2920048,0.4480543,0.45705843,0.50484294,0.56561357,0.5460332,0.5366932,0.5414832,0.54051703,0.6738808,0.63403904,0.9209706,0.9499439,0.64903724,0.60430175,0.4224914,0.56791747,0.94094366,0.67489123,3.0,0.0
0.44685888,0.6519882,0.65501475,0.66327107,0.65724176,0.6331858,0.07607191,0.47658095,0.42374226,0.44844913,0.5368435,0.5306212,0.57266074,0.55083007,0.6006397,0.60477465,0.6382242,0.6465562,0.69807744,0.80039746,0.8391278,0.5935515,0.6474398,0.21837693,0.43182474,0.72563857,0.38133958,3.0,2.0
0.35046273,0.47930443,0.4649934,0.47422308,0.46018645,0.47869802,0.05990571,0.37685314,0.5487979,0.5743614,0.565564,0.43066573,0.49821532,0.36841565,0.3744606,0.4150633,0.42963505,0.54693526,0.51816326,0.29649785,0.3285925,0.4530855,0.2865225,0.4323482,0.25807092,0.79327255,0.63680726,2.0,2.0
0.4745705,0.8209092,0.83375674,0.8343244,0.8356513,0.83901626,0.046580903,0.54163486,0.5449918,0.55828905,0.48842886,0.48869872,0.48878607,0.47378337,0.48383838,0.4903946,0.4974698,0.91573757,0.8442253,0.4016412,0.38593292,0.5772377,0.36456272,0.25756794,0.18827195,0.9353216,0.42545226,1.0,2.0
0.5268519,0.27982306,0.27238086,0.27896997,0.28065613,0.27011168,0.09636756,0.48079482,0.43004307,0.51691484,0.4810597,0.40726772,0.4657492,0.4184202,0.42428666,0.40208378,0.4362699,0.29011095,0.3394794,0.5659267,0.64814264,0.438389,0.35843202,0.13006014,0.07351952,0.6768734,0.18787727,1.0,1.0
0.34958914,0.53452665,0.5341937,0.54558146,0.53283405,0.5477003,0.09963084,0.50798804,0.55205244,0.6226883,0.72122973,0.61789745,0.6677983,0.67457056,0.6172835,0.53863376,0.54604644,0.5949111,0.46946323,0.26793614,0.20622429,0.62527484,0.38501894,0.8873962,0.83244354,0.8235729,0.5049572,2.0,0.0
0.5038,0.4425404,0.4274464,0.43735453,0.42503434,0.4097584,0.046270873,0.35746825,0.4506735,0.45347744,0.46501747,0.46286267,0.4542853,0.45609468,0.46257654,0.45065418,0.5059796,0.41853222,0.4717793,0.7425782,0.8295339,0.48297852,0.5018341,0.13890138,0.16512641,0.68661565,0.24963096,1.0,2.0
0.46741506,0.64568293,0.6313383,0.6446558,0.6278975,0.6261046,0.072517775,0.36443055,0.52218753,0.56468517,0.59033555,0.54426956,0.5850029,0.4471448,0.44110215,0.4648747,0.49254784,0.6854033,0.654033,0.4314101,0.42304224,0.5721383,0.3742922,0.6199402,0.4492417,0.91173595,0.42831013,1.0,2.0
0.583208,0.44106582,0.4336958,0.44630018,0.43858573,0.43331033,0.087479025,0.47924098,0.47284412,0.4943686,0.563283,0.52573913,0.56454307,0.54203326,0.53888077,0.5686527,0.53472865,0.42661506,0.38334984,0.557384,0.5173053,0.67159754,0.47969657,0.35870394,0.4120702,0.724138,0.5335091,1.0,2.0
0.38286158,0.6358182,0.63032216,0.6430012,0.63920724,0.65050185,0.054986816,0.53408253,0.54310924,0.6275831,0.63370764,0.6858676,0.65822077,0.54930854,0.5781195,0.6447871,0.69726604,0.6115056,0.5692085,0.6184759,0.5410605,0.7621707,0.59290755,0.8325683,0.7194042,0.90172887,0.48033914,2.0,0.0
0.39732903,0.8529442,0.84818614,0.85542166,0.8400326,0.8415979,0.12356372,0.38200518,0.40229133,0.52194935,0.5149053,0.58342636,0.61921674,0.5968364,0.62042564,0.60582715,0.6639449,0.80845857,0.82476085,0.9353085,0.9502011,0.68054825,0.71390575,0.55331993,0.73374003,0.9496102,0.51253647,2.0,0.0
0.44286045,0.24148278,0.22741592,0.22746782,0.21738243,0.20756835,0.10625649,0.3236527,0.403831,0.5083147,0.5133198,0.54777163,0.5327629,0.51960397,0.5149302,0.5055668,0.53071535,0.19882381,0.2529127,0.6380372,0.6828913,0.5323619,0.44675624,0.64735407,0.6989055,0.6269966,0.12174526,3.0,1.0
0.43137673,0.9058273,0.8988924,0.9181964,0.89851743,0.90059525,0.06314982,0.36601502,0.3842894,0.43402895,0.42369318,0.48493218,0.48631984,0.42717347,0.45788947,0.4896694,0.54510283,0.94876885,0.9371857,0.7293621,0.790944,0.5278842,0.4791337,0.35384625,0.40557864,0.9850211,0.59502316,3.0,2.0
0.50185084,0.8454185,0.83335024,0.84414905,0.8397269,0.8430085,0.045465443,0.4154624,0.48603967,0.6250685,0.63262135,0.5789444,0.51251906,0.518383,0.5086201,0.47608522,0.50469154,0.9098362,0.8030242,0.4271319,0.39164075,0.6231358,0.3892323,0.57007706,0.41776904,0.93273234,0.4322219,1.0,2.0
0.4039134,0.5915793,0.5876435,0.589017,0.57420135,0.5884696,0.04468238,0.3301469,0.42946756,0.60908073,0.63729775,0.7189032,0.72717077,0.6594296,0.6957598,0.6450132,0.70669764,0.54796743,0.50290996,0.554038,0.40658328,0.87762076,0.543417,0.8340594,0.89221776,0.8223466,0.49556133,2.0,0.0
0.55894274,0.64720833,0.6904786,0.6586172,0.69606185,0.69059896,0.29428685,1.0,0.85926414,0.8011152,0.75744826,0.7904673,0.7704227,0.8008314,0.81314,0.72799885,0.7726593,0.6216108,0.5652435,0.6913753,0.64373785,0.7269256,0.7272627,0.43921757,0.4414412,0.97452265,0.6948577,1.0,0.0
0.4528841,0.6609377,0.6561325,0.670924,0.6655968,0.6678826,0.08284139,0.49361673,0.58202505,0.67005825,0.6660648,0.6289018,0.63912237,0.65006304,0.62514144,0.59163123,0.62422585,0.6640925,0.62257177,0.707519,0.7373343,0.58249235,0.77800375,0.85643816,0.6401699,0.88867885,0.17671432,3.0,0.0
0.3923157,0.2998068,0.28970635,0.26966232,0.2728106,0.2772252,0.14585698,0.32249403,0.28488335,0.39535204,0.48571137,0.45312062,0.4156512,0.43160278,0.3926745,0.30333927,0.33865678,0.37002727,0.33163548,0.15017112,0.12590048,0.51726305,0.13244334,0.43356404,0.45627436,0.70136344,0.60161495,2.0,2.0
0.39273924,0.22673652,0.21344377,0.22669218,0.21911454,0.20918588,0.09996644,0.44286045,0.39113268,0.47204936,0.5401298,0.51008767,0.5657847,0.5343426,0.52835965,0.504809,0.5353051,0.20022427,0.2515033,0.6265298,0.6739354,0.52394235,0.4595099,0.39746127,0.61097854,0.6265668,0.111442804,2.0,1.0
0.5821792,0.5510017,0.54496497,0.5587155,0.5529064,0.55648285,0.06422373,0.4641469,0.541907,0.52239865,0.57472205,0.6301383,0.6431167,0.6420012,0.67504054,0.67685056,0.6972048,0.5398291,0.51024157,0.54191434,0.45337144,0.76034045,0.5552228,0.74242085,0.7955528,0.83913916,0.23735888,1.0,0.0
0.38925985,0.22943151,0.21486638,0.2280883,0.21840131,0.20480092,0.064156614,0.4099752,0.45926955,0.54646355,0.50626194,0.48297712,0.46049595,0.47615325,0.49690646,0.4941212,0.49194622,0.21174048,0.253099,0.5763912,0.6273398,0.50186116,0.394566,0.28166845,0.20500557,0.44137904,0.11599821,2.0,1.0
0.39780906,0.18310791,0.18438168,0.18894461,0.1858984,0.16814151,0.1064163,0.47612697,0.48203415,0.5466139,0.5539349,0.52849376,0.52508456,0.51990616,0.52210546,0.5060697,0.54384685,0.13699138,0.20320918,0.69820434,0.7525415,0.5323768,0.63712394,0.30034214,0.23233955,0.36534423,0.07804473,2.0,1.0
0.33086264,0.54998475,0.54486334,0.5584053,0.5542309,0.55777204,0.059931282,0.4760068,0.58703536,0.65175325,0.68687105,0.7111245,0.7269294,0.68876547,0.656636,0.64156646,0.6552135,0.5497708,0.49447316,0.4843499,0.39152804,0.75108284,0.57848513,0.9475491,0.94948524,0.82914764,0.2313887,2.0,0.0
0.42339024,0.19739656,0.18824308,0.17658617,0.17739059,0.1559222,0.17085737,0.358421,0.37054968,0.4271199,0.5250871,0.4869928,0.58872265,0.55827594,0.52719706,0.45079726,0.43459523,0.18033989,0.15129182,0.5968622,0.66184485,0.48102707,0.40191776,0.53533465,0.7273813,0.17640623,0.37324104,3.0,1.0
0.50067204,0.5636123,0.55543137,0.55964625,0.56166893,0.54799706,0.16159809,0.3793659,0.58773947,0.59335303,0.71471256,0.7097566,0.61708045,0.61728054,0.6984503,0.6732773,0.63598627,0.5930049,0.4940964,0.45029035,0.40637046,0.6464316,0.47149384,0.7880767,0.7607981,0.7978234,0.76664084,1.0,0.0
0.15010262,0.8186718,0.8054059,0.7872692,0.78368735,0.7901106,0.13136876,0.14156291,0.18202423,0.21326366,0.21037911,0.14940391,0.19244854,0.25023803,0.2819287,0.13530686,0.0,1.0,0.9208454,0.3811289,0.5889053,0.1400792,0.123898394,0.090079986,0.10938551,0.93114257,0.6475009,2.0,2.0
0.38426965,0.17293808,0.16202621,0.17477636,0.16974883,0.15336286,0.07578426,0.4339146,0.47611895,0.53358316,0.531189,0.5585572,0.6112235,0.58879596,0.6153219,0.62445694,0.65955997,0.08759245,0.1552807,0.7264252,0.70709586,0.6830026,0.80125463,0.70347023,0.7585814,0.35985172,0.03796033,2.0,1.0
0.43311864,0.26355132,0.24926332,0.2637675,0.25462323,0.23103212,0.23661526,0.43046257,0.45225212,0.50258714,0.55058414,0.5536555,0.5957933,0.60259897,0.61190987,0.62328976,0.693141,0.17907284,0.23069248,0.7673176,0.75304407,0.68569154,0.7239092,0.5902472,0.75461316,0.41714963,0.19642971,3.0,1.0
0.3454703,0.8382996,0.8282695,0.8458038,0.8391155,0.8071462,0.032770276,0.4656145,0.503718,0.5200706,0.5635446,0.540107,0.54391885,0.5664884,0.57945436,0.550643,0.65427047,0.85460657,0.8427408,0.83673507,0.9264435,0.5063084,0.6530795,0.3664707,0.40831527,0.7865216,0.34868038,2.0,0.0
0.433923,0.51856,0.5036582,0.51119494,0.513424,0.49493748,0.09154774,0.4072874,0.46604,0.57421315,0.57517546,0.551091,0.51931465,0.5410401,0.5472162,0.5635261,0.5332578,0.5693727,0.55456907,0.45946652,0.47769138,0.52939594,0.37253404,0.67252576,0.5088169,0.74991447,0.3798383,3.0,2.0
0.42413265,0.5049324,0.5001524,0.4956306,0.4825003,0.48081928,0.0661638,0.26459688,0.30513057,0.36717576,0.562248,0.6035027,0.58704734,0.56921387,0.55575716,0.53650653,0.5429685,0.4839038,0.46375594,0.69023854,0.70255804,0.6109717,0.48323095,0.58584535,0.7594377,0.95662326,0.39410484,3.0,0.0
0.4200513,0.691142,0.72431666,0.7022596,0.684854,0.6881198,0.21814463,0.120909296,0.1172706,0.21565926,0.33811665,0.38669446,0.34416735,0.3777349,0.38757452,0.39570957,0.5344672,0.8125585,0.7665918,0.43242773,0.43655828,0.5483485,0.27399805,0.37104258,0.61558187,0.8778158,0.65570444,3.0,2.0
0.41773525,0.84307945,0.84757644,0.8600754,0.8519537,0.854985,0.019915301,0.50185084,0.5070007,0.595483,0.6835799,0.6569465,0.62765265,0.5454704,0.5542709,0.5259028,0.5333088,0.90765685,0.8040793,0.44780785,0.3995523,0.6540365,0.4553334,0.63763404,0.5473743,0.9339327,0.42439446,3.0,0.0
0.4947474,0.63073325,0.62564784,0.640726,0.6271843,0.6304295,0.03073432,0.38273415,0.3951094,0.46685576,0.52544755,0.51461375,0.52126276,0.52417535,0.535748,0.52982414,0.54588646,0.6533388,0.615873,0.7253526,0.7981427,0.50505316,0.5492082,0.43784183,0.5874656,0.8724367,0.15107773,1.0,2.0
0.4038715,0.60825795,0.6002439,0.6118724,0.5957002,0.5934149,0.016479425,0.38027254,0.41633466,0.4342654,0.46228164,0.52386105,0.518056,0.4984274,0.47763819,0.4460636,0.47751132,0.63990384,0.63627034,0.6184837,0.6912568,0.4725818,0.41128057,0.23493983,0.38446766,0.96377003,0.37995064,2.0,2.0
0.45564026,0.16810742,0.1578092,0.15176588,0.1457537,0.13601276,0.13107151,0.33522332,0.3585329,0.39323667,0.42696202,0.48992074,0.5349371,0.48425063,0.49953496,0.47849852,0.5244737,0.08031056,0.1372394,0.81070864,0.8616443,0.57315344,0.52708554,0.38053447,0.64268893,0.39723253,0.3306236,3.0,1.0
0.21793827,0.44696435,0.4331877,0.43502766,0.4208569,0.43981093,0.04430843,0.3355468,0.41655627,0.42973328,0.5358445,0.5598935,0.5691113,0.4642531,0.48715943,0.43351912,0.43152475,0.49495846,0.44791517,0.27545485,0.23221217,0.59194964,0.26983595,0.5437139,0.60150856,0.779649,0.52102864,2.0,2.0
0.44946203,0.6392759,0.6290011,0.6484823,0.6347241,0.63611895,0.030897323,0.45115632,0.4664022,0.53499776,0.55146617,0.51613253,0.5456005,0.53868556,0.5293634,0.52702457,0.5680426,0.6158575,0.6454804,0.80513316,0.85688514,0.56988376,0.7275462,0.50842506,0.50199604,0.876568,0.17172706,3.0,0.0
0.45813933,0.41482762,0.43400064,0.415068,0.4412349,0.43936178,0.14748701,0.6291478,0.6419591,0.7795784,0.78480655,0.7793745,0.7801829,0.6944754,0.6770089,0.6370316,0.6166092,0.40235814,0.3620974,0.64779794,0.65492374,0.60807794,0.6772225,0.95569664,0.82315814,0.9151886,0.48855248,1.0,0.0
0.50970393,0.49628803,0.48704404,0.49552715,0.49666303,0.5120523,0.07733759,0.49483562,0.42419428,0.37987196,0.3934752,0.39160228,0.3628701,0.27319428,0.21781781,0.25068986,0.29148093,0.6254377,0.5912749,0.21067826,0.28880545,0.33822426,0.17998981,0.06895312,0.058637783,0.8210779,0.54111296,1.0,2.0
0.44810423,0.4595749,0.44782037,0.43978488,0.42849863,0.42364448,0.16409428,0.244614,0.3113641,0.48692504,0.54518884,0.50931376,0.49677703,0.52945226,0.51489276,0.52043617,0.5313272,0.4282583,0.39836773,0.5912128,0.55829746,0.66807425,0.43062243,0.58039343,0.61160976,0.71245146,0.54865324,3.0,2.0
0.38385865,0.22043122,0.20556854,0.20900773,0.20245554,0.18477441,0.1024978,0.35935986,0.36832353,0.45202008,0.48762637,0.48126498,0.52034396,0.49970055,0.50576717,0.52038,0.54090947,0.20393072,0.2346567,0.5543388,0.57704234,0.5496157,0.3171344,0.46884006,0.66432106,0.40578791,0.15763873,2.0,1.0
0.46504143,0.14959832,0.13982321,0.1479911,0.14733301,0.1299783,0.10561087,0.4761221,0.49208415,0.6133922,0.6129636,0.6298771,0.6437555,0.61367977,0.6433669,0.62249655,0.6581751,0.07154433,0.11774485,0.6205022,0.56835175,0.7140715,0.66616875,0.92259276,0.8747744,0.22338615,0.114301704,1.0,1.0
0.37869382,0.73578763,0.7253328,0.6988469,0.6809822,0.6843391,0.12024291,0.1650997,0.15383625,0.16889174,0.107833095,0.0,0.10695271,0.16198878,0.14651941,0.09510322,0.12495063,0.86851984,0.8231253,0.50129217,0.74812174,0.10132489,0.12989156,0.053873517,0.07266574,0.88766956,0.5699357,2.0,2.0
0.33854374,0.6313434,0.6242252,0.6390712,0.63187116,0.6299587,0.041387137,0.42183113,0.4854352,0.49270532,0.61238736,0.5837537,0.59865767,0.561473,0.58652085,0.44991952,0.4605046,0.68190336,0.6470809,0.44752094,0.4245792,0.6051395,0.39525625,0.7376314,0.7292288,0.9185341,0.38816032,2.0,0.0
0.478914,0.22470254,0.2097856,0.21381666,0.20795761,0.18832812,0.14820296,0.34232256,0.35780662,0.42065474,0.4530789,0.41411877,0.41632456,0.43031263,0.43753973,0.41348228,0.4320318,0.198244,0.2661662,0.647481,0.72824746,0.46598873,0.3303125,0.15212086,0.17322518,0.3817406,0.19144686,1.0,1.0
0.363366,0.41686162,0.42678595,0.4236517,0.43308365,0.4551219,0.09081262,0.55117166,0.5513456,0.62210816,0.6566838,0.7567546,0.7047335,0.76731604,0.70715106,0.69282246,0.68066025,0.38502517,0.35790908,0.65580255,0.60804224,0.71634316,0.6441941,0.95549273,0.97874206,0.78632396,0.40604106,2.0,0.0
0.49736598,0.1958202,0.19667716,0.19427063,0.20520657,0.18581055,0.4682413,0.4538256,0.3947279,0.46744475,0.52537036,0.44663435,0.5587918,0.54482925,0.605086,0.607322,0.6266767,0.1576808,0.24149813,0.7167737,0.7449473,0.5884727,0.5634129,0.32902145,0.4461092,0.36974877,0.20858733,1.0,1.0
0.49702775,0.81643444,0.8010365,0.8051605,0.7966274,0.76678956,0.13850579,0.34326538,0.39954847,0.5590069,0.6133249,0.66526586,0.64281166,0.6288383,0.664194,0.69145477,0.7110672,0.7662144,0.7559329,0.8899195,0.87870383,0.71708477,0.734722,0.8251399,0.8799947,0.750149,0.36169106,1.0,0.0
0.5113603,0.49542361,0.48313183,0.49397585,0.4870854,0.47000745,0.08743747,0.41882008,0.4474732,0.44985175,0.4907359,0.45290107,0.4912685,0.49133494,0.5052458,0.4791543,0.5455341,0.48999074,0.5178028,0.5621982,0.5400462,0.6384958,0.4037497,0.14202332,0.1979313,0.73422253,0.25012183,1.0,2.0
0.517585,0.24356759,0.2286353,0.23636173,0.23088287,0.21637511,0.06319137,0.4000208,0.4545147,0.5396614,0.5695121,0.5485431,0.5506678,0.5062005,0.5490133,0.50064343,0.5385346,0.20773788,0.24439453,0.65082645,0.70487386,0.51852554,0.51436883,0.7229477,0.62369806,0.44479287,0.12838203,1.0,1.0
0.40365013,0.48474523,0.5017275,0.49480322,0.5103163,0.49380818,0.18100838,0.62189317,0.53919905,0.57800055,0.62329924,0.56280345,0.6538795,0.5877957,0.54316604,0.49647725,0.55404323,0.5140659,0.5248331,0.56195873,0.57998246,0.5609568,0.5219516,0.5411115,0.50391936,0.7225765,0.3383803,2.0,2.0
0.47757098,0.37811452,0.38431057,0.385387,0.39324468,0.3898635,0.124512985,0.58209807,0.6125364,0.5282714,0.5344803,0.5315559,0.47732604,0.4478161,0.46232453,0.35894015,0.37565294,0.43049192,0.45504707,0.4112665,0.46403766,0.44812426,0.37956774,0.2993396,0.18935513,0.70496,0.5042399,1.0,2.0
0.38521072,0.6677515,0.67452496,0.681059,0.67700845,0.65193725,0.13761087,0.51841474,0.5391994,0.63285017,0.6271377,0.67256063,0.6958106,0.6762995,0.698408,0.6607195,0.70453364,0.63911635,0.62845397,0.8234996,0.8281058,0.6663757,0.826833,0.74883556,0.72707456,0.7369177,0.32508373,2.0,0.0
0.48995233,0.2748907,0.27415913,0.28227934,0.28310153,0.27414855,0.10948462,0.5514499,0.57672447,0.5851757,0.588679,0.62151974,0.58594483,0.60067564,0.6381809,0.6333615,0.6980264,0.25381255,0.2324621,0.5144747,0.46821183,0.6704709,0.5289587,0.5140886,0.4904936,0.67321134,0.23509227,1.0,1.0
0.32319033,0.7591783,0.7485012,0.72645944,0.7118549,0.71962225,0.071606874,0.2036243,0.5018202,0.46858072,0.5628109,0.6140562,0.60240495,0.6397587,0.50018245,0.5821616,0.5185203,0.74743956,0.65148574,0.39499334,0.25209582,0.82046026,0.42906556,0.58830184,0.6619399,0.9408536,0.8907855,2.0,0.0
0.27772418,0.62554663,0.61792505,0.62831587,0.62382185,0.61900854,0.08897483,0.49590677,0.49442887,0.7998054,0.8077508,0.779331,0.72288775,0.6632228,0.68577015,0.67222726,0.68651295,0.5864194,0.5427446,0.78746223,0.7973999,0.6451349,0.7563285,0.9479891,0.7465107,0.99051803,0.32653937,2.0,0.0
0.5937635,0.54998475,0.5513667,0.5495113,0.5547404,0.5692899,0.07686137,0.45366332,0.60829216,0.6758444,0.6334997,0.6671687,0.62262386,0.64236146,0.65691537,0.65354466,0.7406034,0.55991054,0.4796333,0.41955948,0.2981193,0.7865583,0.497836,0.68772334,0.5314793,0.8235782,0.49346128,1.0,0.0
0.36601502,0.9119292,0.9052942,0.9075443,0.9106424,0.912472,0.07564363,0.3915918,0.42359215,0.43508625,0.53721046,0.5083951,0.45051017,0.48268336,0.5352968,0.55110276,0.59802806,0.9439536,0.94106215,0.7564779,0.79938877,0.57213247,0.5295382,0.39834017,0.43046722,0.99085605,0.6290211,2.0,0.0
0.3229831,0.8529442,0.86474955,0.86617714,0.8717204,0.87259156,0.06330004,0.6351175,0.55578196,0.5185739,0.4301011,0.40005812,0.30698833,0.38264006,0.38417456,0.49072787,0.54990965,0.91425294,0.93107265,0.7824979,0.9264517,0.38521707,0.52307594,0.25189397,0.15289252,1.0,0.6586525,2.0,2.0
0.38404253,0.62097025,0.6090844,0.621697,0.60751945,0.6079187,0.056546543,0.38291407,0.43088862,0.5089941,0.52488405,0.6157468,0.6213194,0.62744284,0.68593514,0.59117234,0.614455,0.63120586,0.56122565,0.52800715,0.4691357,0.6988985,0.46782055,0.60663223,0.7444107,0.8644296,0.329383,2.0,0.0
0.35199428,0.6424285,0.6287979,0.63038415,0.6203576,0.60035807,0.13426767,0.35199472,0.38506025,0.4556474,0.4074629,0.3095511,0.3418621,0.40741146,0.37209472,0.38885877,0.38980916,0.73984593,0.6961488,0.29416957,0.32203063,0.46054053,0.17007144,0.2392848,0.23628864,0.75013167,0.52050084,2.0,2.0
0.34631965,0.23126209,0.22690785,0.22870883,0.23001677,0.2036371,0.1599201,0.4715266,0.51505643,0.60884017,0.63759184,0.5572511,0.55087364,0.5543501,0.57102174,0.5619086,0.63140815,0.15366569,0.2067296,0.7836116,0.8280729,0.5773957,0.71615916,0.63320076,0.43528458,0.14728378,0.19614969,2.0,1.0
0.4490345,0.19093868,0.17914847,0.18604892,0.17637166,0.16743934,0.07872473,0.40854618,0.44492874,0.49233013,0.5561271,0.53478396,0.51989317,0.552843,0.5428568,0.48573452,0.48892546,0.18617804,0.195142,0.43828666,0.4457303,0.54374224,0.2756835,0.5199402,0.5776789,0.42515364,0.12807383,3.0,1.0
0.42064333,0.22175328,0.21867697,0.22710586,0.2265525,0.21613215,0.121163405,0.44638306,0.55891705,0.5995839,0.63387734,0.6563209,0.62708926,0.60034007,0.59675276,0.5869158,0.6373009,0.17495702,0.19373383,0.69774055,0.7287497,0.5772163,0.68405193,0.8712511,0.83363247,0.642447,0.1342792,3.0,1.0
0.35186684,0.23029594,0.22081089,0.23455192,0.23001677,0.21557188,0.11934159,0.43929818,0.5194206,0.6186846,0.621684,0.5775174,0.57450086,0.571086,0.590254,0.53363127,0.5479024,0.20859821,0.24224861,0.55897015,0.5765415,0.56092006,0.5065736,0.81875855,0.6173295,0.47058353,0.12322273,2.0,1.0
0.3822905,0.6313434,0.61812824,0.61404413,0.60599107,0.6178344,0.22243707,0.25161424,0.3716729,0.5618075,0.6181691,0.7093981,0.68172705,0.6877664,0.72610044,0.73418224,0.7568807,0.62923044,0.5385291,0.51737916,0.4169099,0.7758743,0.4838462,0.8348214,0.9365108,0.8999429,0.55021816,2.0,0.0
0.41260415,0.27031428,0.2666396,0.27441955,0.27265778,0.26430935,0.045171395,0.5104516,0.4700411,0.5685086,0.6409573,0.6327896,0.68418807,0.63449156,0.63981164,0.57219344,0.63628894,0.264735,0.22818783,0.47109684,0.44090444,0.62629074,0.46974522,0.7488828,0.8246244,0.66536325,0.24485931,3.0,1.0
0.3766772,0.34129974,0.35382587,0.34484717,0.3598247,0.36099073,0.10349181,0.5174331,0.35312238,0.51996595,0.5536909,0.49507672,0.6046233,0.59632564,0.65214056,0.63390636,0.66576195,0.32364273,0.31440255,0.6230348,0.5824882,0.6924674,0.50660807,0.4864441,0.6330365,0.8214319,0.6909553,2.0,1.0
0.38933703,0.5880199,0.57727873,0.58787936,0.5823526,0.5677422,0.12604395,0.5111953,0.57582164,0.6250701,0.5764814,0.60215217,0.57512695,0.66898304,0.6385822,0.6909455,0.7097345,0.5804603,0.52055573,0.54222864,0.48222864,0.7054,0.54462934,0.5888209,0.56294745,0.8626588,0.44670904,2.0,0.0
0.4464942,0.37638566,0.3718118,0.37597603,0.37714604,0.37766564,0.10373791,0.47163266,0.5076272,0.49379733,0.50101453,0.45588842,0.4199254,0.458379,0.47165695,0.4555145,0.43944725,0.3957289,0.42838606,0.5993296,0.6974196,0.41794035,0.42040855,0.14920984,0.12294031,0.89524865,0.5004131,3.0,2.0
0.3122649,0.82660425,0.82664365,0.84166706,0.83035296,0.82852453,0.03553496,0.46532962,0.62897056,0.6957215,0.6638108,0.6626761,0.7048845,0.677299,0.71680206,0.74224466,0.7554758,0.75965387,0.76326406,0.944724,0.9294959,0.7414904,0.88761854,0.78254783,0.7269218,0.9146606,0.31675673,2.0,0.0
0.5008868,0.37709755,0.3672899,0.37333882,0.36349273,0.34988576,0.080412306,0.41615653,0.5017511,0.56606907,0.632244,0.675684,0.6881974,0.65146506,0.67117304,0.69414604,0.6828486,0.31058952,0.2995209,0.6881545,0.652148,0.70351946,0.6715961,0.8718046,0.90776545,0.6922285,0.24508296,1.0,1.0
0.43096772,0.12071598,0.10588357,0.10569316,0.09735591,0.091272235,0.163666,0.33817354,0.40469044,0.53144795,0.5452319,0.5645263,0.64571285,0.59309095,0.64047635,0.62292105,0.6595993,0.0011730627,0.088977955,0.6679982,0.58160615,0.79454154,0.5625312,0.7654492,0.87239975,0.34004277,0.29178235,3.0,1.0
0.5344876,0.064476766,0.052281275,0.056000832,0.060166065,0.056892946,0.12482621,0.42265445,0.47674868,0.5502729,0.6514988,0.5726223,0.6095995,0.635842,0.69932073,0.6554407,0.6474191,0.014223386,0.0188185,0.45633098,0.36588228,0.737985,0.46078318,0.8235682,0.89253783,0.3060942,0.31171823,1.0,1.0
0.42968863,0.6979559,0.68590593,0.70256984,0.6872994,0.68904346,0.10051618,0.44609642,0.46944153,0.537535,0.56273884,0.5115653,0.4638636,0.46785793,0.46960437,0.46634132,0.44452384,0.7121299,0.7241371,0.7163461,0.8145091,0.45339015,0.53812027,0.42558587,0.3314516,0.9097502,0.2600926,3.0,2.0
0.37594736,0.14176755,0.12691802,0.12922077,0.1207397,0.10332985,0.09204634,0.3672932,0.42363214,0.51323026,0.53909886,0.558008,0.56878877,0.59625065,0.5213661,0.54324865,0.55320495,0.09148183,0.09972535,0.50327843,0.4552499,0.6704702,0.3857127,0.6624017,0.8251695,0.019108756,0.19728877,2.0,1.0
0.4981311,0.6236144,0.6102022,0.61600906,0.6083346,0.62013924,0.15546465,0.38571608,0.39754188,0.46675116,0.36689803,0.3360716,0.34910035,0.4635973,0.47623572,0.49100587,0.55440575,0.6729313,0.6679151,0.52836573,0.5626862,0.51931626,0.3549225,0.11882309,0.18211874,0.9102949,0.50491244,1.0,2.0
0.26459688,0.51357675,0.5113302,0.5232432,0.51327115,0.5105055,0.08548462,0.38998616,0.4324432,0.66564643,0.7325203,0.6806743,0.6742263,0.63416,0.62795305,0.5962734,0.6019749,0.48272976,0.46082982,0.7091528,0.7002301,0.6576834,0.6451022,0.84278166,0.7649081,0.96379024,0.3700788,2.0,0.0
0.444067,0.12081766,0.11436847,0.11862041,0.121198185,0.11159637,0.07719057,0.4510119,0.5168055,0.60612667,0.5919165,0.5928704,0.64142895,0.6069275,0.6066499,0.51434946,0.53254336,0.09356545,0.12963107,0.43976176,0.39358407,0.6475827,0.43344438,0.90371186,0.77995205,0.28598917,0.30613813,3.0,1.0
0.4853566,0.47849083,0.4939539,0.487564,0.49554223,0.4878869,0.1874071,0.55540997,0.7154892,0.91030777,0.9221995,0.9746783,0.9739605,0.81638396,0.7950856,0.7908064,0.7618286,0.42938137,0.35902122,0.60138017,0.49492657,0.812962,0.6883123,0.95548856,0.8878115,0.72833794,0.62358457,1.0,0.0
0.5190515,0.70741385,0.7039935,0.71839285,0.70502824,0.6992815,0.06393288,0.45499995,0.39043313,0.49526718,0.5432561,0.5349262,0.6261688,0.60472906,0.5957474,0.55929595,0.598684,0.7451733,0.73557806,0.68346006,0.7331266,0.5368981,0.5366984,0.46954748,0.6788791,0.93046415,0.38604793,1.0,0.0
0.24939519,0.60739344,0.5998374,0.6038058,0.5947322,0.5718972,0.09641231,0.45644066,0.49726528,0.60463876,0.603625,0.62731,0.6224337,0.6337186,0.6848729,0.71581954,0.74395406,0.5462951,0.54999703,0.85032946,0.86022913,0.66432923,0.8404211,0.74808943,0.7432442,0.7367261,0.29456282,2.0,0.0
0.43139437,0.57510424,0.56721884,0.5585087,0.5496459,0.5516924,0.11563404,0.2825737,0.42309272,0.46371967,0.467229,0.46482956,0.5064897,0.46407157,0.47636262,0.41797015,0.44627178,0.6159628,0.59822804,0.44516218,0.4582025,0.535042,0.27091503,0.42614165,0.43587556,0.8458058,0.32946694,3.0,2.0
0.505784,0.54225564,0.5367341,0.54547805,0.5302868,0.51952493,0.099362366,0.33321398,0.40888166,0.44161585,0.45786005,0.47727206,0.48999992,0.47899997,0.48007166,0.4376796,0.48490837,0.57908964,0.5736826,0.46670347,0.46335998,0.5731848,0.2539541,0.22981794,0.28287867,0.7707162,0.21931346,1.0,2.0
0.47650424,0.64914066,0.63519967,0.65044725,0.6359468,0.63730896,0.03324331,0.431954,0.45511866,0.52113837,0.55596685,0.5547132,0.5554794,0.5552699,0.5537289,0.5220218,0.55927235,0.6381212,0.6430274,0.7674415,0.8328288,0.5321284,0.71152925,0.5189979,0.54967076,0.8759354,0.1554071,1.0,0.0
0.47784284,0.15020849,0.14058533,0.14762914,0.14091393,0.12554058,0.061701957,0.44291118,0.49154863,0.53395915,0.55709076,0.517129,0.53473216,0.5126052,0.50142676,0.49469382,0.49695745,0.11212317,0.16034284,0.59725684,0.64467335,0.51501787,0.45103955,0.3899717,0.28276867,0.22801736,0.08990071,1.0,1.0
0.3889547,0.6465982,0.63662225,0.6531361,0.64440364,0.6472189,0.024987616,0.44722757,0.5119324,0.5685644,0.57731813,0.56893826,0.5889166,0.5862442,0.57833487,0.5707149,0.5922071,0.6467855,0.61388266,0.7574759,0.8181156,0.5382517,0.7671489,0.668032,0.5844455,0.8797898,0.14079823,2.0,0.0
0.51257384,0.5006611,0.49161673,0.50493824,0.4909572,0.51258284,0.04277427,0.39044213,0.41279826,0.467024,0.5135879,0.5301945,0.5903071,0.59730667,0.6452786,0.657099,0.74951935,0.41205657,0.479671,0.89976126,0.8854007,0.72614205,0.7180814,0.5087451,0.72542244,0.8110396,0.31687334,1.0,0.0
0.41481724,0.2494661,0.23645972,0.23925747,0.23174892,0.21717824,0.120997205,0.35267296,0.46939817,0.4736418,0.5207348,0.47933447,0.5137791,0.524591,0.52901006,0.53112316,0.5153671,0.19353972,0.2609338,0.71580917,0.7688661,0.54019964,0.53246117,0.33711013,0.384051,0.42080227,0.1563274,3.0,1.0
0.38683906,0.21753283,0.20948076,0.21738455,0.20770286,0.19488022,0.11877906,0.3975998,0.37803486,0.4444335,0.51716137,0.5424168,0.54641765,0.520188,0.51382285,0.5047828,0.5476495,0.20680231,0.23749945,0.540728,0.5650165,0.5424196,0.35493267,0.48018527,0.6928129,0.45730132,0.13628769,2.0,1.0
0.49735585,0.5741381,0.56772685,0.580123,0.56834275,0.5469191,0.06787056,0.41401598,0.49706942,0.6396031,0.71205145,0.6895891,0.6694287,0.6232875,0.6580733,0.6387677,0.6681196,0.53166234,0.51415515,0.8014372,0.8159801,0.64050573,0.774605,0.9072849,0.8804211,0.7334238,0.28022775,1.0,0.0
0.41655186,0.19658294,0.18179046,0.19215058,0.18166995,0.16727738,0.101270474,0.36686742,0.4246483,0.47819594,0.5250316,0.54404265,0.55385196,0.580179,0.58592945,0.62843424,0.62694937,0.13660628,0.16647448,0.6019478,0.5644047,0.6802624,0.495936,0.5003849,0.7640088,0.3387562,0.12303808,3.0,1.0
0.3570352,0.8362657,0.82318866,0.8345312,0.8335116,0.83522,0.10726328,0.39732903,0.40098378,0.43669972,0.52206707,0.48353472,0.57278264,0.5861816,0.58109444,0.5907453,0.61507255,0.81542194,0.8619725,0.9173883,0.9551309,0.63103896,0.6746338,0.4043175,0.57816607,0.96028495,0.51151085,2.0,0.0
0.4016494,0.7460592,0.7457576,0.74693614,0.7380406,0.7122582,0.13085738,0.32385844,0.24940754,0.47041848,0.448868,0.30242103,0.31664455,0.36810207,0.34347996,0.290853,0.3207486,0.87795913,0.8274181,0.4348462,0.55236065,0.33045885,0.2635929,0.28400433,0.2562803,0.7582909,0.5076749,2.0,2.0
0.41101593,0.17375168,0.16736105,0.17798233,0.1720923,0.1569073,0.101743504,0.46799758,0.4673445,0.5393431,0.5394412,0.4932282,0.51538634,0.47714067,0.44564053,0.45297003,0.48903605,0.16876455,0.2057226,0.48209816,0.5142587,0.5094088,0.31323946,0.21702103,0.12846342,0.33590898,0.15797636,3.0,1.0
0.43310407,0.3094173,0.29814044,0.3137701,0.30704564,0.29490086,0.0490835,0.46417138,0.5330641,0.6085167,0.67617095,0.6350337,0.59892017,0.57047564,0.6154105,0.624566,0.6052947,0.29099986,0.27015933,0.56146276,0.5622928,0.59395844,0.5417038,0.86363524,0.68105936,0.69097716,0.15839796,3.0,1.0
0.33495632,0.17497204,0.16258511,0.1687781,0.17066585,0.1590421,0.13047063,0.45349464,0.47331068,0.5653522,0.6560209,0.8043536,0.7421128,0.63427705,0.6622639,0.7179521,0.7440712,0.041007433,0.09903122,0.8372321,0.7872847,0.77574205,0.7047475,0.96654534,0.9781608,0.4213296,0.3891087,2.0,1.0
0.37690207,0.732635,0.73518956,0.7285278,0.7187834,0.71260095,0.17872313,0.55894274,1.0,0.99916375,0.8787234,0.80775714,0.85380465,0.7929874,0.8497586,0.8618603,0.8144343,0.62358624,0.5652435,0.76611435,0.6749331,0.8336179,0.768562,0.7176882,0.5033424,0.96524894,0.7318132,2.0,0.0
0.4436772,0.36743623,0.3655116,0.37576914,0.37093073,0.3698385,0.07802477,0.40690947,0.47370747,0.41144702,0.43751127,0.5671959,0.5645655,0.52539396,0.48183864,0.40196577,0.38708192,0.44937488,0.3612507,0.25396255,0.23708613,0.5345737,0.26794922,0.25895867,0.455153,0.7158706,0.5270256,3.0,2.0
0.47915986,0.6349029,0.6245301,0.6063912,0.5923378,0.5901592,0.158664,0.27183524,0.3723018,0.51365244,0.5861693,0.5297399,0.51869106,0.5197959,0.5225098,0.5509136,0.56933606,0.6199233,0.56758726,0.583588,0.56719816,0.6338909,0.43775442,0.7201134,0.712057,0.95072955,0.46070352,1.0,0.0
0.36419562,0.020593934,0.012803598,0.014168289,0.0132457,0.012196289,0.21619816,0.35965466,0.4012494,0.37688345,0.45087233,0.4952146,0.4667265,0.38766316,0.35309896,0.32815155,0.32173368,0.05143567,0.08798611,0.30853543,0.34494096,0.44843456,0.16620243,0.15371856,0.2032932,0.24203767,0.32324538,2.0,1.0
0.41716683,0.92647207,0.9177929,0.925539,0.92113703,0.9227518,0.07340631,0.36743674,0.49705824,0.5334833,0.46942326,0.49308002,0.5674443,0.5903694,0.6121765,0.60009336,0.5721635,0.9341527,0.94436955,0.7874608,0.80011255,0.6399012,0.5743111,0.42683172,0.48378822,0.9795311,0.6273382,3.0,0.0
0.5420437,0.86158854,0.84615386,0.85428405,0.8395231,0.84109974,0.06680304,0.27304265,0.44764093,0.5270144,0.64267975,0.5072853,0.50040984,0.4962955,0.5138912,0.5084557,0.5269425,0.92397064,0.80542123,0.5624647,0.59340096,0.5362129,0.43573183,0.6518626,0.5559944,0.9823976,0.6097401,1.0,0.0
0.41701204,0.40191197,0.41377905,0.4098971,0.4103622,0.42943436,0.0899145,0.54552084,0.5928782,0.62299716,0.6554851,0.50340044,0.46454793,0.48634782,0.4629348,0.4982502,0.55004287,0.46310115,0.3737828,0.24119404,0.19657418,0.5841847,0.33004725,0.358361,0.19477709,0.7662845,0.52271056,3.0,2.0
0.5531819,0.3045866,0.31368762,0.30668598,0.31947622,0.32214877,0.14381142,0.42080253,0.46728435,0.40864524,0.49582103,0.4407621,0.40731707,0.5043608,0.46012005,0.3945741,0.4817662,0.30440545,0.37104902,0.49970973,0.4621566,0.64918613,0.4061954,0.2804024,0.30732098,0.7919105,0.7366325,1.0,2.0
0.3428447,0.535747,0.53632766,0.51486635,0.50043297,0.49417424,0.08412305,0.252042,0.38082516,0.44707605,0.43492162,0.43176928,0.39198872,0.4736337,0.48592964,0.47962636,0.52392536,0.53274167,0.47666493,0.70044106,0.7796364,0.48512584,0.4364332,0.23603584,0.26424906,0.75758713,0.58315426,2.0,2.0
0.6027014,0.47513476,0.4613352,0.47194785,0.46416014,0.46312538,0.061193768,0.36871472,0.49437705,0.5440919,0.5748875,0.6196944,0.6811751,0.59993535,0.6014894,0.5998617,0.7181414,0.4056552,0.41168946,0.7975441,0.77659094,0.70776457,0.66759723,0.79260373,0.86116594,0.9317697,0.48614278,1.0,0.0
0.50016624,0.5532391,0.5434407,0.55468225,0.55260074,0.55456316,0.092586495,0.42293847,0.38800845,0.3631106,0.4735936,0.48564598,0.53479964,0.55932647,0.57778573,0.5538513,0.58235675,0.5742921,0.596804,0.5449018,0.51122147,0.65546376,0.40511772,0.2478158,0.4905839,0.84624773,0.33311072,1.0,2.0
0.42462963,0.5985966,0.5852048,0.60339206,0.5891792,0.5901005,0.056463443,0.4071551,0.42655763,0.43227908,0.43016407,0.48044208,0.50394434,0.5129204,0.51801825,0.46317622,0.46404508,0.6599757,0.6236744,0.45431983,0.47773585,0.5178211,0.25715226,0.24404706,0.37855145,0.8661355,0.29277793,3.0,2.0
0.41105142,0.18453167,0.17508383,0.18475619,0.18070199,0.16984208,0.11969317,0.46135876,0.4414369,0.5684084,0.58305013,0.57365704,0.59279525,0.5829325,0.620698,0.6137077,0.66043705,0.12042571,0.14978233,0.66441196,0.651636,0.65150523,0.603085,0.5462956,0.6334712,0.3751578,0.16414373,3.0,1.0
0.39092237,0.6524967,0.6486129,0.6594446,0.6500076,0.63401794,0.10038833,0.43586907,0.53422904,0.67135555,0.6097251,0.62375486,0.68244994,0.65148115,0.63460827,0.6778693,0.7437158,0.59671396,0.6110939,0.78791493,0.7472249,0.7428921,0.707463,0.8694423,0.77035,0.8776946,0.38982344,2.0,0.0
0.5111953,0.56961256,0.5642719,0.5727804,0.568088,0.55412483,0.08793607,0.49568716,0.50942975,0.4982006,0.56728494,0.51590455,0.6520177,0.6023175,0.66680276,0.6465267,0.65134674,0.583493,0.5178864,0.51717746,0.46765757,0.67757314,0.4882819,0.47759673,0.6009162,0.858232,0.45602405,1.0,0.0
0.40426838,0.51479715,0.503709,0.517762,0.5037954,0.52532953,0.053545345,0.42443207,0.4805231,0.57027066,0.6432927,0.6482613,0.7105852,0.70657855,0.76637995,0.7231743,0.80590785,0.40130335,0.46136796,0.90417665,0.8443145,0.8152204,0.8051517,0.89489126,0.9341327,0.8191952,0.351268,2.0,0.0
0.43816704,0.6010373,0.592013,0.6099074,0.59957206,0.6019042,0.047137037,0.42404842,0.52368146,0.6097553,0.72325385,0.71772826,0.75306123,0.66837376,0.6854089,0.7258264,0.75912774,0.5377863,0.54653364,0.69432783,0.5791387,0.85807586,0.73417234,0.94238895,0.95802224,0.85763013,0.2395089,3.0,0.0
0.46209675,0.22149906,0.20658472,0.21722943,0.20831421,0.19909982,0.05592329,0.41495505,0.46628124,0.5560645,0.56154245,0.59912777,0.5922325,0.7192911,0.6606683,0.67938024,0.68664026,0.11175105,0.15720843,0.80302346,0.7776041,0.7180427,0.6959857,0.81075305,0.87833154,0.612415,0.2560557,1.0,1.0
0.5262396,0.19892201,0.19388275,0.20419878,0.2016404,0.17790881,0.13705474,0.44732702,0.41784215,0.50242853,0.56753767,0.5578896,0.60553145,0.56433874,0.605544,0.6703359,0.6924602,0.10422133,0.19170684,0.79144514,0.76146835,0.7233087,0.7064765,0.6516714,0.8191057,0.111646265,0.16923872,1.0,1.0
0.42496875,0.21407507,0.20922671,0.21676406,0.2138672,0.18899465,0.082572915,0.4344372,0.49767458,0.5382252,0.57976705,0.646289,0.62790716,0.6645198,0.6399581,0.5448617,0.59514,0.14515546,0.1826994,0.6542477,0.6160046,0.69751924,0.57479864,0.75707096,0.83647865,0.18973683,0.4168111,3.0,1.0
0.45671627,0.512458,0.5066559,0.522209,0.5140353,0.49551603,0.069219336,0.4992781,0.49853218,0.5439902,0.51371443,0.5336834,0.55092466,0.5766012,0.52364707,0.5156424,0.5331281,0.57703656,0.560012,0.4507223,0.49689516,0.4728475,0.370884,0.36071333,0.41147274,0.73427474,0.39191684,3.0,2.0
0.54465234,0.18417574,0.182705,0.16841614,0.16674305,0.14626826,0.29820535,0.38498625,0.2949608,0.39856043,0.55688155,0.4798698,0.4735428,0.56511414,0.57995564,0.5831253,0.56926954,0.15063088,0.1485386,0.5598707,0.54830074,0.61738384,0.42158827,0.4593373,0.69497466,0.1586773,0.5087222,1.0,1.0
0.41961342,0.19861692,0.18778579,0.19427063,0.18788525,0.17815138,0.10921614,0.36832973,0.38582212,0.40862903,0.47043896,0.4778051,0.5040535,0.5325722,0.5610249,0.5580355,0.5911676,0.16295572,0.22686642,0.553365,0.5231404,0.65137464,0.37351733,0.23652625,0.5180677,0.47260284,0.1191096,3.0,1.0
0.19576503,0.65412384,0.64282084,0.63669264,0.63013905,0.6435983,0.09240431,0.37932485,0.38816634,0.271434,0.25181556,0.16847548,0.19766071,0.3321071,0.39865348,0.36880043,0.3991198,0.68922246,0.7320969,0.69305325,0.82891655,0.37361246,0.3752948,0.04424717,0.081257686,0.85938144,0.6217984,2.0,2.0
0.31613412,0.6098851,0.5955696,0.5943947,0.588466,0.57003367,0.2803324,0.29020366,0.3986265,0.39943948,0.38254577,0.36659616,0.40101212,0.3598685,0.29967177,0.2815929,0.34437418,0.7272807,0.6674249,0.22757892,0.2616111,0.42838797,0.12977506,0.22928184,0.18342073,0.7487905,0.5646758,2.0,2.0
0.4253255,0.5652395,0.5557362,0.5702984,0.5598349,0.5477828,0.09611506,0.37205565,0.36880535,0.47380152,0.51055896,0.4492683,0.5119179,0.5051785,0.48822144,0.42655504,0.4982258,0.6512143,0.5894777,0.42043746,0.4629055,0.47077987,0.28161538,0.39919436,0.45783305,0.80429816,0.356409,3.0,2.0
0.43881264,0.54378116,0.5411036,0.54868394,0.54394,0.5615092,0.063753895,0.4554493,0.49281535,0.6200106,0.64291084,0.5605994,0.5250195,0.46411383,0.47280315,0.4625195,0.52815586,0.5849838,0.5689323,0.50450265,0.5347069,0.5199951,0.4269737,0.5788789,0.3707268,0.8039196,0.4342067,3.0,2.0
0.3118389,0.75368655,0.75104153,0.752314,0.75149006,0.75318605,0.07888454,0.45177943,0.48032457,0.57841635,0.7580431,0.7078348,0.8054886,0.7361292,0.60730666,0.52857876,0.5198034,0.8521604,0.6376448,0.41511834,0.44121054,0.5007378,0.44035244,0.9122064,0.9049863,0.9139466,0.654161,2.0,0.0
0.48490107,0.44960845,0.43979272,0.42551324,0.4277854,0.42442492,0.17390332,0.19410604,0.26311442,0.33439323,0.2606597,0.29154235,0.36998415,0.35053587,0.32177848,0.37105757,0.39363605,0.5190904,0.5102831,0.46072638,0.536946,0.41795447,0.23902318,0.21059878,0.22213015,0.76882434,0.55317223,1.0,2.0
0.41853344,0.19012512,0.17813233,0.18765189,0.17790003,0.16886134,0.06728246,0.38263535,0.48350367,0.5213043,0.4841493,0.448578,0.4492987,0.41932872,0.43112314,0.4436028,0.49476168,0.19828752,0.21650803,0.45038405,0.49547404,0.4748325,0.25151807,0.15194727,0.094013244,0.43644398,0.14468619,3.0,1.0
0.38172692,0.25078818,0.24306475,0.25533897,0.25034386,0.23442146,0.07793208,0.46189633,0.5076387,0.56586957,0.60864145,0.538609,0.5943876,0.59660053,0.60210824,0.6085135,0.6270268,0.17734882,0.26492187,0.76439464,0.78257626,0.6222231,0.7759257,0.4810473,0.41616282,0.4371434,0.14272092,2.0,1.0
0.4874936,0.5802909,0.5730109,0.5844666,0.57032955,0.56729996,0.023255294,0.42972302,0.44486824,0.48489705,0.5145878,0.48522773,0.5041922,0.54630494,0.5485589,0.5270914,0.5355397,0.5460218,0.5364012,0.7984752,0.85537875,0.5579255,0.6176842,0.15871133,0.35454682,0.9722626,0.27714628,1.0,2.0
0.46566346,0.18809114,0.17792909,0.18966854,0.18192469,0.17097594,0.07300999,0.41670048,0.41296732,0.519256,0.52502286,0.5556624,0.53867555,0.5311966,0.55555737,0.55031395,0.5655,0.13492458,0.17995249,0.66499895,0.68501216,0.5884602,0.5322552,0.54381543,0.6454984,0.37624997,0.15528743,1.0,1.0
0.4857076,0.510119,0.4952749,0.4934588,0.4830098,0.48131064,0.039386336,0.36927435,0.4191087,0.39589807,0.4841745,0.47672167,0.5488264,0.6287701,0.56474936,0.46134096,0.510041,0.50044155,0.4509675,0.61372745,0.63790923,0.5648283,0.44817603,0.28231218,0.53908587,0.9613042,0.42331386,1.0,2.0
0.41117424,0.59168106,0.5891678,0.5892238,0.5903,0.58818585,0.07584179,0.4038715,0.40467945,0.45515683,0.4481024,0.43879646,0.5218615,0.50302535,0.49027503,0.44874862,0.45690036,0.64187014,0.633375,0.5968714,0.6737605,0.45807204,0.38591737,0.25362688,0.29760468,0.9665108,0.39200822,3.0,2.0
0.4097062,0.63144517,0.6183823,0.62769526,0.619033,0.5969398,0.0960032,0.40227515,0.45651805,0.49429384,0.56298167,0.5482356,0.59129554,0.5934921,0.6253969,0.6589225,0.7168367,0.56982154,0.63126093,0.8825636,0.8956341,0.66801924,0.7626266,0.56342304,0.70964795,0.7452272,0.29903334,2.0,0.0
0.5590393,0.5010679,0.49557972,0.5087646,0.49615362,0.49399117,0.024792649,0.45380178,0.5240552,0.5336857,0.55667067,0.47499934,0.5368229,0.5328331,0.58016497,0.6492545,0.61093086,0.50121033,0.45380402,0.6109765,0.6314317,0.5711772,0.4996721,0.33678907,0.27765292,0.9603888,0.38740423,1.0,2.0
0.5460774,0.8346384,0.81922567,0.82718855,0.8094655,0.7789836,0.05013504,0.3614517,0.34534547,0.43236533,0.4753324,0.43461955,0.4730139,0.47044307,0.46942058,0.48049402,0.5165561,0.86437565,0.840548,0.7769341,0.8916788,0.43984535,0.48990655,0.33923614,0.37579694,0.7818697,0.36995727,1.0,2.0
0.49801424,0.153412,0.13967079,0.14680178,0.13836667,0.12918396,0.09137515,0.37706128,0.49185696,0.57572365,0.49927732,0.44931677,0.42945814,0.48205537,0.45879108,0.42022905,0.47992352,0.12082787,0.19033523,0.5953108,0.66886866,0.4640206,0.42476764,0.27189112,0.17837134,0.37208498,0.31585658,1.0,1.0
0.26339608,0.9109122,0.9053958,0.912922,0.904529,0.90468097,0.110887736,0.389382,0.2736559,0.40926686,0.43198434,0.5914602,0.64131236,0.66486573,0.6957033,0.64340043,0.70106596,0.8976373,0.86926854,0.97228545,1.0,0.6670717,0.65251607,0.55056036,0.7814282,0.99223566,0.60131854,2.0,0.0
0.2914424,0.7504322,0.7396607,0.74548835,0.73488206,0.7369693,0.1370004,0.363396,0.48903158,0.613808,0.60978955,0.71411157,0.80452955,0.7077632,0.75032794,0.70688206,0.7298939,0.7340359,0.65215206,0.5607072,0.42813936,0.8509445,0.56000674,0.9008844,0.91661865,0.902167,0.51504153,2.0,0.0
0.5240774,0.41569206,0.4008739,0.39479807,0.3854501,0.372369,0.16499561,0.3084195,0.35445267,0.43411914,0.49814108,0.5100862,0.5456721,0.55437756,0.547286,0.54816484,0.59042805,0.3434997,0.41568044,0.7920373,0.81486225,0.6216774,0.5872863,0.60024804,0.81893224,0.6890268,0.20215453,1.0,1.0
0.47077426,0.22892304,0.21796566,0.22260717,0.21366341,0.2004075,0.116618454,0.34056675,0.3784477,0.38701597,0.4365799,0.45234698,0.4875175,0.4632022,0.5088837,0.47869322,0.5110624,0.21282701,0.25548068,0.6114909,0.6622198,0.5129602,0.35406658,0.1116189,0.37877658,0.44494852,0.14028427,1.0,1.0
0.4392854,0.5458151,0.5478102,0.55044204,0.54495895,0.547139,0.0780855,0.46578163,0.46164224,0.5119288,0.5203924,0.56231874,0.5138058,0.46949962,0.49395674,0.47395223,0.5513204,0.592653,0.5773139,0.43762693,0.42868257,0.5751407,0.34080908,0.466929,0.42376184,0.84439945,0.34917834,3.0,2.0
0.37150133,0.5830367,0.5683366,0.5876726,0.5751184,0.56239897,0.044343587,0.44696695,0.53508395,0.5914051,0.5872143,0.65144056,0.6045997,0.5708935,0.5987539,0.58747554,0.60163,0.59688896,0.537132,0.4662998,0.41436923,0.666747,0.46202523,0.7038515,0.65709066,0.79693866,0.29584524,2.0,0.0
0.37763083,0.25780538,0.24641804,0.25761414,0.2471343,0.22417913,0.094213344,0.3951543,0.4385861,0.49646726,0.5114415,0.49483532,0.53047806,0.5394614,0.5673123,0.5720452,0.60693777,0.18320596,0.24309158,0.7555973,0.76730543,0.6320293,0.64737636,0.31908202,0.47090882,0.4020789,0.17317177,2.0,1.0
0.3742469,0.7481948,0.7574434,0.76110446,0.7662642,0.76603615,0.037011586,0.56376934,0.6015863,0.77481574,0.85130185,0.8705405,0.89993566,0.813477,0.7965182,0.7775903,0.7807674,0.7141664,0.6595504,0.73331356,0.64304364,0.8218845,0.8267296,0.9699138,0.97497016,0.9098971,0.32654098,2.0,0.0
0.44077417,0.4602868,0.45732144,0.46279535,0.4593713,0.44219178,0.12174511,0.49832028,0.58142734,0.6175219,0.6524743,0.6495597,0.7556576,0.7384095,0.7250668,0.70081687,0.7070187,0.38870135,0.39118436,0.82635146,0.8235653,0.681497,0.8262315,0.74241334,0.8410832,0.70181406,0.30360612,3.0,0.0
0.36023146,0.10347811,0.090082325,0.09855734,0.097865395,0.09439875,0.18272154,0.46441966,0.3582393,0.3606558,0.42400917,0.3899281,0.4490704,0.48137537,0.46947342,0.4825281,0.48294854,0.10594848,0.14961298,0.41604432,0.4162432,0.55094653,0.26359537,0.09997015,0.31885612,0.465213,0.24709569,2.0,1.0
0.4691598,0.164192,0.15664059,0.15745386,0.14748584,0.1288082,0.15377067,0.34868753,0.49019685,0.43259683,0.45573196,0.44473982,0.4236719,0.41163653,0.41757485,0.44625914,0.4494487,0.17329623,0.21151793,0.49095136,0.5662758,0.42887345,0.3194087,0.2813805,0.22567134,0.15910804,0.4138451,1.0,1.0
0.5444228,0.77006,0.7583579,0.77568644,0.75892806,0.73098165,0.040294047,0.38845727,0.4418943,0.56023604,0.63638514,0.60862243,0.656185,0.62406284,0.6017155,0.62670195,0.66516304,0.7462103,0.69401544,0.7983886,0.79824245,0.6679015,0.692181,0.7893445,0.8963665,0.7441701,0.2786147,1.0,0.0
0.5346664,0.90013224,0.9128137,0.9163348,0.9184879,0.91833407,0.016946064,0.49777788,0.552293,0.6101541,0.54845065,0.5694561,0.5666983,0.6749743,0.7464967,0.69129276,0.76943403,0.91348183,0.8625454,0.7512967,0.7145998,0.72405523,0.63358235,0.43954253,0.48073357,0.9751202,0.67714477,1.0,0.0
0.37633896,0.6280891,0.61792505,0.62655765,0.6245351,0.62133694,0.04279345,0.39811265,0.45204002,0.46013823,0.52264905,0.48890013,0.49901485,0.56159914,0.53919894,0.5094765,0.5787311,0.6176426,0.5929188,0.7553832,0.78249705,0.60225934,0.55401826,0.28736144,0.38640952,0.98101526,0.40462017,2.0,2.0
0.45490602,0.2965016,0.28472716,0.29691297,0.28656578,0.2740358,0.036222134,0.40728563,0.43850103,0.5284642,0.56085193,0.517521,0.53576547,0.5536655,0.5628429,0.5858055,0.6398369,0.25154456,0.26588565,0.6759235,0.6923981,0.5986061,0.5795117,0.7294901,0.74466527,0.6732126,0.07062783,3.0,1.0
0.44643688,0.4424896,0.43054566,0.4380268,0.42676646,0.42198458,0.2010931,0.3647066,0.3899669,0.34552252,0.31846467,0.29476663,0.2717545,0.33447444,0.33922705,0.3023682,0.34703088,0.54563767,0.5091523,0.26247504,0.32241645,0.38904384,0.055439465,0.01042004,0.0,0.68220437,0.3081571,3.0,2.0
0.55332345,0.16332757,0.14907023,0.15300688,0.14417441,0.13275231,0.14460407,0.37407956,0.43039477,0.48853275,0.46488434,0.4328238,0.47442794,0.46770528,0.47660774,0.44333643,0.48632884,0.14191511,0.18754159,0.47776106,0.4866101,0.55303854,0.22861764,0.045602296,0.058253903,0.3184241,0.1214286,1.0,1.0
0.4789579,0.4937964,0.4902449,0.49128705,0.49452335,0.47704747,0.103884935,0.44682935,0.4786985,0.50845826,0.4836227,0.4770677,0.4808862,0.49675405,0.5324693,0.5059123,0.52317786,0.54712635,0.5385368,0.43278322,0.44193193,0.5387806,0.2937586,0.22805135,0.21759892,0.7464459,0.35957178,1.0,2.0
0.15939245,0.38086042,0.410629,0.38073322,0.42044932,0.4193522,0.24076068,0.66042614,0.7355194,0.8796834,0.9391311,0.90863097,0.8044522,0.73481065,0.70315903,0.7307854,0.64815134,0.33586612,0.29268214,0.6544064,0.59369916,0.7408826,0.6717539,0.9968994,0.83319026,0.8805178,0.72943115,2.0,0.0
0.54777783,0.65788674,0.6526776,0.6588241,0.6607061,0.6716455,0.0561662,0.45533377,0.49838647,0.5601022,0.6422788,0.5450775,0.55586755,0.6502163,0.6750507,0.67883134,0.81168234,0.62126946,0.57379293,0.58729994,0.42606857,0.91430134,0.5514825,0.7621766,0.7609662,0.9310088,0.75750595,1.0,0.0
0.43889534,0.18936238,0.1882939,0.19184034,0.19751386,0.17273818,0.18888374,0.49685887,0.47300506,0.59495324,0.722175,0.69166374,0.724927,0.72718847,0.71722555,0.7106581,0.7795652,0.0966219,0.14768411,0.72283065,0.64613736,0.7925178,0.7662711,0.8774989,0.89283764,0.09103553,0.19085787,3.0,1.0
0.425221,0.61619043,0.6204654,0.6266611,0.6200519,0.6169957,0.0719169,0.5420873,0.52382886,0.5520923,0.535047,0.50268173,0.5271578,0.49164405,0.5193567,0.4867054,0.5055992,0.62856406,0.6451797,0.6764117,0.74383193,0.5005218,0.5307745,0.28172064,0.1994543,0.96925706,0.41759068,3.0,2.0
0.7656901,0.49181327,0.499746,0.49842283,0.5098069,0.50879556,0.1064163,0.5385334,0.6560363,0.7589306,0.6460824,0.68958044,0.6944032,0.6497216,0.69194853,0.62201804,0.63504493,0.5004464,0.4457928,0.5500985,0.52895105,0.63287866,0.57611066,0.82246006,0.6325188,0.9668358,0.41781282,1.0,0.0
0.42840382,0.12386861,0.122548535,0.12167122,0.118650936,0.10144143,0.23980503,0.39220873,0.38574487,0.43462664,0.4610596,0.44485298,0.46326503,0.45723143,0.47417668,0.46743113,0.4923563,0.09437049,0.15904747,0.5790975,0.60731864,0.5465069,0.29819196,0.14386924,0.18940319,0.004829179,0.12107449,3.0,1.0
0.47455925,0.20380352,0.19723605,0.20993848,0.2011819,0.19243927,0.09220615,0.41089135,0.5135361,0.55102813,0.7634312,0.6639907,0.70444554,0.6561634,0.6362957,0.66914845,0.7181313,0.101110555,0.14630425,0.765293,0.72356814,0.73800707,0.68561584,0.88894373,0.79660076,0.6085772,0.28941593,1.0,1.0
0.47968552,0.8640293,0.8597704,0.8724856,0.85348207,0.85648197,0.03378985,0.39500105,0.49084267,0.5942139,0.57600105,0.62651503,0.65587443,0.63494146,0.60435545,0.6038091,0.4260597,0.9645663,0.87693655,0.37753284,0.36517745,0.56344026,0.3831922,0.7166368,0.72958875,0.9385584,0.4983819,1.0,0.0
0.4225076,0.44543886,0.46011588,0.44960955,0.4500993,0.44584867,0.142664,0.504398,0.5623113,0.44044772,0.45490047,0.45474064,0.3750142,0.41195124,0.45754862,0.40300468,0.38524723,0.51453274,0.48525506,0.4193152,0.4890287,0.41790426,0.33793983,0.32967237,0.2657937,0.77580464,0.5938377,3.0,2.0
0.4364644,0.6184278,0.61294585,0.62583375,0.61750466,0.6160247,0.045928884,0.44265231,0.48067763,0.46884996,0.49091747,0.5044402,0.48179966,0.55334496,0.547002,0.53729135,0.53889155,0.67628753,0.6381402,0.435884,0.42157462,0.58495533,0.34384695,0.18658087,0.35717872,0.91365147,0.36147726,3.0,2.0
0.43752012,0.53605205,0.52982426,0.53916955,0.53578883,0.52162826,0.2527591,0.30318323,0.40910393,0.36506087,0.32346296,0.36931184,0.4437557,0.53540933,0.55239445,0.349127,0.30361485,0.6574291,0.60137266,0.3578282,0.4305815,0.3933417,0.3047889,0.2274299,0.42507344,0.7627597,0.8168771,3.0,2.0
0.38845727,0.7771789,0.76851946,0.78178805,0.7672831,0.73891747,0.04643388,0.44412124,0.5367483,0.6565494,0.65578353,0.67985195,0.6686242,0.62273663,0.6598941,0.659592,0.70614046,0.74282426,0.6833151,0.7960479,0.7885333,0.68139756,0.75134474,0.9264748,0.94959867,0.7477587,0.28941792,2.0,0.0
0.44052985,0.16459881,0.15237275,0.16309012,0.1545672,0.13799465,0.1531698,0.43761846,0.45844603,0.52001995,0.5602347,0.5485428,0.579008,0.58980954,0.5856164,0.6116782,0.62751776,0.08071489,0.15048486,0.6856432,0.66073406,0.6813579,0.67930484,0.5596017,0.73586154,0.22708204,0.07778054,3.0,1.0
0.4086787,0.85782564,0.8446296,0.84177047,0.83931935,0.8409004,0.10372193,0.31503916,0.39139068,0.47594854,0.4316074,0.5526912,0.5154606,0.45449394,0.38391408,0.34678575,0.27216554,0.92862296,0.9059589,0.6677936,0.8080466,0.3574656,0.42232963,0.5058452,0.528093,0.9920194,0.6387372,2.0,2.0
0.4304738,0.12300418,0.120668635,0.1278246,0.12965508,0.11527046,0.09779305,0.4926622,0.56840813,0.6191716,0.6382899,0.6058924,0.6303011,0.56471163,0.56154996,0.55835974,0.60841376,0.080683395,0.103870176,0.52733934,0.5059323,0.6264572,0.5428302,0.79151803,0.5264631,0.30846772,0.10993439,3.0,1.0
0.5738923,0.014237786,0.0,0.005067497,0.0,0.0,0.2850691,0.36419562,0.3583524,0.4110516,0.37050435,0.40380535,0.47320858,0.44013265,0.366463,0.30374005,0.31921974,0.04824797,0.07906973,0.28337935,0.3241194,0.43242565,0.13232614,0.1192489,0.16500445,0.22826847,0.31576395,1.0,1.0
0.41729227,0.124733075,0.11634997,0.12663531,0.121198185,0.10621348,0.06955813,0.4312753,0.46857142,0.58337677,0.58528125,0.59643114,0.58108515,0.5818027,0.5779826,0.60232514,0.62006354,0.07807742,0.110431455,0.48893288,0.42467454,0.697401,0.458141,0.86111486,0.7509791,0.2100334,0.1245916,3.0,1.0
0.3510307,0.13124175,0.123005785,0.13077201,0.12308317,0.105448425,0.102414705,0.3924709,0.49013433,0.5448271,0.5390984,0.48746777,0.49538094,0.49283832,0.49030772,0.47305632,0.48507428,0.097889684,0.14775036,0.5531959,0.583704,0.5342193,0.37066442,0.41512695,0.30668318,0.016873932,0.12496562,2.0,1.0
0.4323266,0.12503816,0.11274262,0.12368791,0.11381117,0.100817926,0.09724331,0.39448225,0.43908775,0.4892857,0.48766577,0.49106944,0.5068074,0.5361738,0.57248133,0.555645,0.5852506,0.07682695,0.11625623,0.5597555,0.54667866,0.6202543,0.39891446,0.10096721,0.30209708,0.28809413,0.0799516,3.0,1.0
0.46584865,0.5680362,0.565847,0.57702047,0.5626878,0.54348916,0.09337595,0.404477,0.50874805,0.5972375,0.6200087,0.6097203,0.62561613,0.57865304,0.6214818,0.6826612,0.6955966,0.52076226,0.5018132,0.7459475,0.7100023,0.7209788,0.67470247,0.88108826,0.8695245,0.7374689,0.28877163,1.0,0.0
0.53849834,0.21224451,0.19952244,0.21531618,0.20444238,0.19548413,0.07225569,0.41251683,0.47356752,0.5812496,0.5602832,0.5350991,0.54361737,0.54255956,0.5696444,0.5320936,0.5595295,0.17143351,0.21778034,0.67759764,0.73605275,0.51816905,0.560475,0.7515583,0.56521136,0.6267238,0.11248713,1.0,1.0
0.3376512,0.6840232,0.69108826,0.69388276,0.70156395,0.67757386,0.117701955,0.4915789,0.54275584,0.5955539,0.47378424,0.48713654,0.40755036,0.4238786,0.3779179,0.39966175,0.41836774,0.7834151,0.74696815,0.3671416,0.38991636,0.49254224,0.31502637,0.32861215,0.19690117,0.7650836,0.44564858,2.0,2.0
0.21330263,0.6977525,0.68925923,0.6789906,0.67120075,0.6797289,0.06951658,0.27707326,0.3001429,0.44359955,0.48982885,0.4160707,0.48738635,0.4380181,0.3407722,0.451023,0.41804463,0.7423074,0.7453889,0.40276146,0.35427555,0.64077985,0.35905313,0.37114796,0.39105034,0.92129385,0.90359384,2.0,2.0
0.5447006,0.5540527,0.54547304,0.5606805,0.5492383,0.5512965,0.08263044,0.43139437,0.35075936,0.48216498,0.49268708,0.4603199,0.48326856,0.5064075,0.47015288,0.4602852,0.44149715,0.61461616,0.5923428,0.43371335,0.44953814,0.5261909,0.26929733,0.39604747,0.4474369,0.8441243,0.31240287,1.0,2.0
0.47146288,0.45845622,0.44751555,0.4626919,0.45157674,0.43482953,0.040038355,0.43255594,0.4178296,0.5433474,0.55037457,0.54702103,0.5942266,0.616118,0.58118206,0.5924728,0.58257896,0.4396668,0.42433572,0.7200926,0.7698866,0.54779404,0.59793836,0.4824334,0.6092369,0.67964375,0.2314623,1.0,0.0
0.44040197,0.6388691,0.62463164,0.62935,0.61465174,0.6132578,0.061596483,0.33854374,0.38641626,0.47345456,0.4569073,0.5376893,0.5399115,0.54034126,0.52039814,0.5288958,0.4300501,0.6802221,0.64391446,0.43944207,0.42396596,0.5882872,0.3271943,0.54057103,0.70216334,0.9123462,0.39134318,3.0,2.0
0.4701699,0.6138513,0.6083731,0.6168364,0.6150593,0.6121611,0.23571394,0.5398396,0.60498923,0.60891575,0.5940056,0.58160824,0.5893912,0.62231034,0.61483043,0.63185894,0.6526213,0.62367713,0.5639554,0.5702787,0.55279875,0.63194484,0.57793653,0.59370744,0.43702576,0.96300775,0.41894352,1.0,0.0
0.48960572,0.20924439,0.19825223,0.20859404,0.20688772,0.19412439,0.06301878,0.41723937,0.42185614,0.4650398,0.5030463,0.517747,0.48053432,0.47369292,0.44726896,0.43943352,0.4787805,0.21063425,0.25057074,0.5449039,0.60001963,0.48424911,0.32226202,0.26518407,0.27617124,0.44693014,0.11791446,1.0,1.0
0.37487265,0.6516831,0.65318567,0.65468735,0.6640684,0.67495227,0.027963243,0.46389288,0.47646356,0.52488804,0.5707948,0.5847215,0.56226474,0.6061752,0.6242161,0.6038138,0.5176161,0.6581464,0.67880154,0.6526545,0.63298637,0.66121876,0.54163915,0.60920155,0.67212003,0.9308843,0.58632433,2.0,0.0
0.31641105,0.8235534,0.82237583,0.83670294,0.83025116,0.7987264,0.065284856,0.5460774,0.49948293,0.4922016,0.5408513,0.5384105,0.52028334,0.53305775,0.52886444,0.50670326,0.5585709,0.8684588,0.83948433,0.76588076,0.8732318,0.45073986,0.57830036,0.38286304,0.38138685,0.7867832,0.37592813,2.0,2.0
0.3350787,0.106122255,0.098109975,0.103728235,0.095318146,0.08776662,0.091029964,0.41655362,0.40617573,0.46270043,0.5402892,0.54585063,0.568473,0.5705337,0.52450347,0.49255335,0.5644729,0.06735855,0.086892724,0.4884505,0.45938772,0.62939066,0.37169096,0.5410793,0.7107391,0.29281506,0.23674114,2.0,1.0
0.44563252,0.6354114,0.63682556,0.6446558,0.63727134,0.64859784,0.08168438,0.4975609,0.5799392,0.70821077,0.6939669,0.55978626,0.5017284,0.47513488,0.49561664,0.47158325,0.48995736,0.67845094,0.646191,0.5225223,0.5590052,0.5133694,0.47306913,0.69330066,0.48716074,0.9244979,0.5819324,3.0,0.0
0.41251683,0.20807488,0.20074181,0.20880088,0.20841609,0.19919504,0.10325849,0.4612838,0.5399737,0.5534457,0.560463,0.54226905,0.55951643,0.57751495,0.5557168,0.5437152,0.5592745,0.16922992,0.21881457,0.6841872,0.74575716,0.51416713,0.59379524,0.5351522,0.4481414,0.63419574,0.12904918,3.0,1.0
0.5464809,0.37750435,0.3755716,0.38249132,0.37948945,0.3799213,0.0672505,0.4464942,0.5076258,0.57521045,0.52957773,0.50092113,0.48359132,0.43982393,0.47165614,0.46254522,0.48649675,0.39800483,0.42308298,0.58788633,0.67661023,0.4325196,0.43204993,0.34831536,0.20587207,0.89742565,0.48197702,1.0,2.0
0.4928966,0.27061933,0.25754496,0.2672837,0.25574404,0.24516223,0.040997203,0.3515729,0.40717766,0.44378123,0.46193796,0.4434232,0.49435908,0.47791058,0.5211799,0.53195226,0.5637404,0.23477626,0.28759652,0.6505749,0.67989784,0.5661223,0.4330869,0.16706915,0.32869735,0.6408326,0.08269772,1.0,1.0
0.39571658,0.1074952,0.104714975,0.110088415,0.1134036,0.10441926,0.08570515,0.5327543,0.5161899,0.5129592,0.51740265,0.51461375,0.53998333,0.5579308,0.58016664,0.54610837,0.58383155,0.07926274,0.13570637,0.46518153,0.429381,0.63530505,0.42306146,0.30137667,0.38055164,0.28846312,0.28472915,2.0,1.0
0.2947026,0.57962984,0.57240117,0.5643001,0.551378,0.5308617,0.11996165,0.34879932,0.3246769,0.48007503,0.51936877,0.47740614,0.42247176,0.47097614,0.4649149,0.47544187,0.53920114,0.5833521,0.5960882,0.6881809,0.77786,0.46118236,0.44187656,0.40902954,0.42415145,0.7278596,0.40304202,2.0,2.0
0.49294862,0.60419,0.59465504,0.6133202,0.6003871,0.6026976,0.037110668,0.43816704,0.464666,0.58455604,0.6276084,0.7017391,0.7189623,0.7200319,0.6680412,0.6757972,0.7554067,0.5390743,0.55702716,0.71768785,0.6120407,0.8467819,0.73709184,0.962846,0.969884,0.8570608,0.22355749,1.0,0.0
0.40990728,0.10871557,0.103597194,0.11329439,0.111365795,0.09727262,0.104952455,0.47480267,0.46735466,0.54315984,0.55724716,0.59496963,0.5935892,0.5584342,0.59481275,0.5713296,0.58306843,0.09079842,0.1001058,0.42698297,0.38078186,0.64374125,0.37445787,0.69309646,0.78791296,0.20279829,0.13772026,2.0,1.0
0.47256798,0.38716567,0.3766894,0.3691504,0.3589077,0.35696104,0.1172481,0.24683702,0.3049554,0.37859955,0.3376662,0.2971623,0.3389706,0.27356836,0.2824187,0.334054,0.37931547,0.43106788,0.4680285,0.4361969,0.50728863,0.42038134,0.22197935,0.1529617,0.12653574,0.6898587,0.5221444,1.0,2.0
0.35640854,0.8051459,0.7922975,0.78561455,0.76656985,0.7393856,0.10384339,0.20248081,0.26509288,0.36579645,0.3543317,0.31023097,0.35057944,0.3585404,0.38070437,0.36699396,0.40382904,0.88354754,0.8495713,0.57127774,0.67780685,0.39313632,0.2727573,0.1488361,0.15868111,0.7656873,0.41164088,2.0,2.0
0.1594211,0.53076375,0.53866476,0.5361704,0.52621114,0.5439798,0.07130004,0.42160138,0.553647,0.5944126,0.56594473,0.47515377,0.49692038,0.5098238,0.5192839,0.54800177,0.58027947,0.5754633,0.48544323,0.45969087,0.47445205,0.53614277,0.39286104,0.50472796,0.34367394,0.80213314,0.4667734,2.0,2.0
0.2201441,0.7457541,0.75205773,0.74869436,0.75199956,0.7447655,0.095856175,0.5561336,0.53591746,0.6565477,0.7186398,0.6794676,0.66579837,0.6628835,0.6346876,0.68058395,0.9741317,0.6605324,0.6176168,0.9643939,0.92698556,0.7902405,0.78455126,0.74042875,0.66030484,0.95013034,0.67252624,2.0,0.0
0.4003282,0.5792739,0.56742203,0.5738145,0.55952924,0.56292903,0.0787503,0.36418447,0.38048226,0.5047594,0.5015801,0.5474143,0.4512706,0.40219975,0.39457345,0.37088013,0.380147,0.6178474,0.6161552,0.5471001,0.62417966,0.44256684,0.34516183,0.43515888,0.43491676,0.8233846,0.38700962,2.0,2.0
0.44682935,0.50167805,0.48933038,0.4980609,0.492078,0.474733,0.06778745,0.43364915,0.4383999,0.44209203,0.47505096,0.4527317,0.48646516,0.52200377,0.51419467,0.491701,0.48001817,0.55144507,0.54354006,0.43494713,0.448964,0.5300522,0.27397683,0.14923126,0.31147254,0.740651,0.35108417,3.0,2.0
0.38354424,0.86321574,0.8548928,0.8702104,0.8593917,0.86439806,0.037823413,0.3431194,0.30626735,0.3669613,0.42249206,0.43983892,0.3060858,0.17563319,0.2619296,0.21118157,0.25577596,0.99109817,0.96363264,0.56836706,0.7426738,0.26156324,0.2879515,0.17383578,0.1599558,0.94468707,0.54103893,2.0,2.0
0.47664535,0.7124988,0.7278732,0.7222193,0.7350858,0.7356363,0.07724491,0.5926209,0.68243724,0.7987957,0.8445381,0.7733973,0.757877,0.7127055,0.68408453,0.6939745,0.7389692,0.7147005,0.6509064,0.636092,0.5917558,0.7037458,0.7405587,0.95085233,0.74489737,0.9038044,0.30899608,1.0,0.0
0.4520815,0.44574395,0.4326796,0.42634052,0.4220795,0.42092165,0.20909628,0.38505417,0.49389318,0.6117649,0.58299947,0.55523837,0.6591514,0.6380064,0.68059856,0.5409345,0.6733846,0.35044384,0.34486806,0.7946921,0.7624531,0.72865844,0.61076254,0.7875523,0.79249656,0.9004293,0.6712927,3.0,0.0
0.40331012,0.11674975,0.102835104,0.107192725,0.10290894,0.089582905,0.19728325,0.3513438,0.41161504,0.47077087,0.46841955,0.43342376,0.4716743,0.4767738,0.4688894,0.43172842,0.41237402,0.12525426,0.13567787,0.39812395,0.42193505,0.4999673,0.15373132,0.18359822,0.16408639,0.18830281,0.17910255,2.0,1.0
0.7365245,0.5540527,0.5475053,0.55613005,0.55382335,0.5513443,0.06473831,0.39438677,0.41728815,0.358933,0.3667024,0.47625214,0.50609106,0.4823114,0.48909238,0.5396443,0.5138963,0.60270333,0.61381674,0.60408556,0.6760854,0.46969366,0.39969692,0.07708727,0.27573285,0.9603061,0.43042502,1.0,2.0
0.4362869,0.15936135,0.15028961,0.1611252,0.15818429,0.13984555,0.07805993,0.4573921,0.48762527,0.5696443,0.61699337,0.59318364,0.64985824,0.61901385,0.64360905,0.63774836,0.653706,0.07523443,0.1346739,0.6689206,0.6193364,0.7238497,0.7281592,0.9009052,0.91709024,0.23496746,0.094073415,3.0,1.0
0.44957536,0.5727652,0.56229043,0.5682817,0.56034434,0.53934836,0.09719217,0.38065046,0.3276312,0.44576725,0.45954907,0.4885606,0.5526277,0.45815292,0.4760058,0.46775916,0.52382386,0.5702535,0.5468904,0.7542976,0.8337633,0.500985,0.49892995,0.49783137,0.609933,0.7349044,0.37032023,3.0,2.0
0.4648463,0.4949659,0.48399553,0.49149385,0.48382494,0.47822866,0.08064563,0.3428447,0.25926256,0.3754064,0.41901264,0.3758839,0.4029904,0.36609098,0.43862695,0.42871803,0.46205744,0.5336998,0.5604494,0.65871704,0.75878435,0.43219048,0.3754237,0.1959733,0.24072409,0.7559809,0.5736842,1.0,2.0
0.36828697,0.6346995,0.6254446,0.6437251,0.63462216,0.6176413,0.10613824,0.40983188,0.5404982,0.6633784,0.59671533,0.5581768,0.5751277,0.5553856,0.583669,0.54141665,0.66594416,0.5977135,0.6405796,0.7554926,0.74148977,0.6815732,0.60861796,0.80199236,0.58713627,0.8259524,0.58560914,2.0,0.0
0.41943502,0.093155734,0.09623007,0.09669581,0.09913902,0.092920594,0.24146065,0.48326457,0.601689,0.60544044,0.68772596,0.6592692,0.67502373,0.66066587,0.71391505,0.6573132,0.7060026,0.0022067039,0.049253974,0.57545996,0.46484405,0.8131041,0.6069085,0.817065,0.82334876,0.33345938,0.3269276,3.0,1.0
0.44100478,0.63164854,0.6292044,0.64134645,0.6381883,0.6411586,0.04094287,0.4947474,0.4763958,0.5021939,0.5375637,0.5532598,0.5646623,0.5495104,0.556533,0.5501481,0.5842053,0.65597194,0.6172276,0.71783566,0.7872782,0.50922173,0.6357248,0.31013843,0.46542126,0.8771227,0.15610656,3.0,2.0
0.46650884,0.75012714,0.76232094,0.760484,0.7661623,0.7675127,0.08159808,0.53223085,0.73063344,0.84258586,0.74035895,0.7221318,0.69167763,0.7238558,0.6580142,0.6841654,0.6443118,0.73430943,0.6551871,0.6402723,0.57841945,0.73879266,0.6289759,0.8478552,0.7358688,0.9184798,0.68194264,1.0,0.0
0.38081738,0.24468628,0.2344782,0.24298051,0.23562075,0.21364285,0.08071274,0.43364915,0.46551174,0.48323882,0.48605067,0.47882262,0.49557242,0.48948795,0.48957065,0.48997834,0.52648056,0.19181764,0.2704347,0.7036001,0.75550437,0.53870887,0.5431871,0.17009023,0.13901384,0.39139986,0.17237104,2.0,1.0
0.47924098,0.4421845,0.42709076,0.44092247,0.43023074,0.42530423,0.08922093,0.39361814,0.39893857,0.50718516,0.50604767,0.5240271,0.5212486,0.51312524,0.5610814,0.4880336,0.5394377,0.42760494,0.3798658,0.55141944,0.5071169,0.67792773,0.4461922,0.41181877,0.4574702,0.7229694,0.5632328,1.0,2.0
0.3950015,0.85904604,0.8571284,0.8763121,0.86305976,0.8658637,0.037820216,0.4410383,0.5096212,0.53884745,0.6061994,0.62756455,0.60424083,0.64096117,0.6586147,0.64647263,0.6426981,0.9537054,0.86595523,0.4159507,0.37220833,0.63564485,0.42590272,0.6718183,0.7237273,0.93953764,0.4522983,2.0,0.0
0.46377116,0.91030204,0.914338,0.9162314,0.9139029,0.91566575,0.04738314,0.5183327,0.37992284,0.45727566,0.3612223,0.32989582,0.38487867,0.41167378,0.43375346,0.49118966,0.59027696,0.98997366,0.9748742,0.68417525,0.77287096,0.46186018,0.44917852,0.2353254,0.23862952,0.98251975,0.63174236,1.0,2.0
0.16915457,0.6786332,0.6647699,0.6825068,0.6655968,0.66266876,0.078890935,0.4032603,0.510081,0.5722183,0.5320303,0.6277399,0.6046915,0.634893,0.6012439,0.58924353,0.56405073,0.6995964,0.62109053,0.50180954,0.4618016,0.65455824,0.46255723,0.7467597,0.7532243,0.89904034,0.37919593,2.0,0.0
0.51190794,0.73914367,0.7396607,0.7489011,0.75087875,0.723336,0.041505393,0.5179715,0.52107954,0.6311383,0.62833154,0.581488,0.6375253,0.6314912,0.650029,0.6452018,0.65945727,0.73670655,0.6686939,0.76009345,0.76721925,0.64223254,0.69705385,0.94544727,0.84466743,0.74638367,0.29615238,1.0,0.0
0.45842114,0.49516934,0.49161673,0.50069803,0.50104433,0.522598,0.071773075,0.475127,0.5628541,0.64738446,0.72631884,0.73370826,0.8097328,0.7323711,0.7809224,0.7661497,0.80292535,0.39317843,0.4360341,0.8641219,0.7837781,0.8425303,0.80573875,0.9429976,0.94114405,0.8258512,0.39330518,1.0,0.0
0.40392223,0.5203905,0.50614774,0.5220021,0.51378053,0.51263684,0.035304833,0.47795904,0.45381144,0.6068193,0.63537,0.64955837,0.6175856,0.6022751,0.5510511,0.5727013,0.5982032,0.50282234,0.46064544,0.64304787,0.6405351,0.6252181,0.55460966,0.70740616,0.6657004,0.96361077,0.38721198,2.0,0.0
0.45580918,0.115631066,0.10080279,0.111846544,0.10739209,0.09365933,0.07507471,0.42177713,0.5216781,0.5657207,0.5530427,0.5863643,0.5834672,0.558561,0.5234968,0.5130293,0.53726065,0.10163915,0.09471687,0.39279923,0.3663174,0.59532195,0.31969985,0.73036593,0.58259445,0.20560567,0.1652369,3.0,1.0
0.46674606,0.66032743,0.6567422,0.668959,0.65887207,0.6698417,0.06263843,0.47758862,0.45848703,0.5970289,0.6386342,0.6103589,0.48305207,0.5424405,0.55585676,0.55007017,0.5780318,0.63627505,0.62975883,0.63159686,0.5885577,0.6998776,0.52789474,0.60242045,0.4573312,0.93076944,0.65942067,1.0,0.0
0.4482028,0.12402119,0.11284422,0.12554939,0.11839624,0.10500059,0.025137834,0.43867815,0.4681658,0.550293,0.5783573,0.53976774,0.5674352,0.5588523,0.5435741,0.5299819,0.54926157,0.076857716,0.13927795,0.5575054,0.5527398,0.60354435,0.46265832,0.710776,0.5435679,0.29425403,0.046871647,3.0,1.0
0.5253779,0.65564936,0.6622295,0.66947615,0.6684497,0.66543585,0.06435478,0.52763003,0.5818597,0.5324618,0.50923216,0.5432317,0.51545984,0.49943328,0.51471627,0.45569214,0.44117278,0.74527276,0.70824116,0.4526688,0.5107766,0.4504267,0.3724307,0.4438448,0.35219723,0.91515344,0.41455907,1.0,2.0
0.43253475,0.51449203,0.5032009,0.4998707,0.4936064,0.4876199,0.060228527,0.2943789,0.45444676,0.43920386,0.5662651,0.5726818,0.53218704,0.44198808,0.48107195,0.46871772,0.46231955,0.532957,0.5454201,0.59957564,0.6684174,0.4744113,0.42811587,0.59384716,0.5424401,0.77215415,0.5732201,3.0,2.0
0.47294173,0.2343639,0.22269079,0.23367289,0.23261498,0.21089226,0.22929604,0.45249823,0.523036,0.6490791,0.64650375,0.6962978,0.6825328,0.6437535,0.6532179,0.67589676,0.66578096,0.17300224,0.18199253,0.66353774,0.6473429,0.65783155,0.6721136,0.9747916,0.9261438,0.4016405,0.23192526,1.0,1.0
0.64260805,0.6304282,0.61975414,0.63017726,0.6247388,0.6341365,0.08068078,0.49115556,0.5385685,0.76285213,0.7371358,0.8309643,0.8102745,0.7318578,0.72126627,0.8728446,0.7837762,0.66536075,0.50224876,0.27225927,0.09731396,0.84492475,0.4761825,0.9233638,0.9183546,0.90116745,0.91226697,1.0,0.0
0.2973933,0.21153262,0.19982727,0.19716635,0.18854752,0.16603805,0.1686648,0.31896502,0.48534745,0.50008214,0.5334732,0.45574877,0.48200384,0.48862898,0.49061647,0.47618327,0.5187668,0.15862116,0.22786489,0.6165264,0.64476717,0.55785316,0.44480398,0.27251798,0.20821251,0.1959069,0.38302737,2.0,1.0
0.4262904,0.33946916,0.3259831,0.34071046,0.33211064,0.31844583,0.072377145,0.42002398,0.47401547,0.53434384,0.6207866,0.6056822,0.6267538,0.63017035,0.6131589,0.6462932,0.65582263,0.27791324,0.30174524,0.7211089,0.7087764,0.66789466,0.76058066,0.91946197,0.9701619,0.71730775,0.07163089,3.0,1.0
0.3638674,0.6713109,0.6814348,0.6805419,0.6799633,0.67660266,0.08333679,0.5028686,0.46597663,0.5010753,0.54174894,0.4718839,0.44369373,0.46719342,0.4798464,0.47064835,0.442497,0.7489035,0.7257268,0.52386546,0.5968474,0.44340095,0.3583317,0.3006846,0.27611423,0.9076764,0.35457024,2.0,2.0
0.43950722,0.22714332,0.2131897,0.21914268,0.22084668,0.20165391,0.050719935,0.43471456,0.4976229,0.5256803,0.5504053,0.5772945,0.5816453,0.556615,0.56332815,0.55104417,0.59817195,0.2103441,0.22846238,0.56551707,0.59143806,0.54681164,0.46717042,0.7622611,0.8024703,0.41252077,0.14313781,3.0,1.0
0.2844413,0.41421747,0.40890154,0.41382694,0.40557337,0.42780775,0.1118306,0.45208415,0.59516704,0.72921103,0.71943176,0.6177696,0.6494708,0.5898185,0.6045588,0.5923671,0.68282926,0.35155973,0.3527391,0.55202115,0.45378926,0.78209656,0.575628,0.7829679,0.5505542,0.75266033,0.44988295,2.0,0.0
0.41599864,0.5651378,0.5508587,0.54547805,0.5432268,0.55414987,0.077081904,0.36133966,0.40426266,0.7251682,0.5612982,0.46197546,0.37782854,0.369492,0.3235244,0.20334488,0.15225287,0.7153395,0.5903799,0.028835118,0.066577695,0.36078578,0.2512425,0.5736003,0.35944718,0.88184386,0.97168964,3.0,2.0
0.41241077,0.2210414,0.21003965,0.21500593,0.20872174,0.18902732,0.10979784,0.38825065,0.48264644,0.5564849,0.49980363,0.50104344,0.5414135,0.48335326,0.56353515,0.54283255,0.62692636,0.16050215,0.23936437,0.7093372,0.74255747,0.5764801,0.56447524,0.57900566,0.43347776,0.38039896,0.21032542,3.0,1.0
0.28894198,0.5937151,0.5935373,0.5992553,0.59885883,0.594878,0.0506688,0.45215955,0.36298823,0.4719677,0.4825531,0.68026066,0.69345456,0.6686236,0.62553126,0.5848849,0.6363652,0.5926169,0.5491518,0.7755269,0.803064,0.6075698,0.60863596,0.67113703,0.81970745,0.98571193,0.34745094,2.0,0.0
0.49466407,0.4529645,0.44416222,0.45126426,0.45274845,0.45211613,0.06677427,0.43141025,0.35588357,0.49871972,0.47748363,0.39714026,0.4275334,0.4598033,0.39980397,0.42871782,0.5329589,0.44779557,0.50939244,0.7390018,0.83243525,0.46940035,0.4802124,0.3116097,0.26435912,0.93433,0.5335492,1.0,2.0
0.38801163,0.16851422,0.17401686,0.17167383,0.18207751,0.16157192,0.15499161,0.49010316,0.5064748,0.4878372,0.50783986,0.5016136,0.5371166,0.53324264,0.5292873,0.54477733,0.61944,0.15523778,0.20803997,0.55745363,0.55847526,0.5923697,0.46074525,0.26425207,0.31715205,0.18596269,0.30916122,2.0,1.0
0.4188117,0.6404963,0.62524134,0.6243859,0.6085383,0.6203396,0.109884135,0.31267324,0.33659607,0.47481355,0.5018185,0.51658905,0.5262008,0.5789783,0.5571663,0.45854658,0.5098289,0.6116167,0.5788666,0.6209641,0.57549053,0.70133775,0.46610883,0.5282861,0.71318036,0.884563,0.47400728,3.0,0.0
0.43364915,0.8424693,0.8294889,0.8340142,0.8208772,0.8245447,0.114403516,0.36885718,0.43931273,0.17705679,0.29743055,0.25993732,0.3114361,0.3284959,0.29862836,0.29483375,0.35812595,0.9940842,0.93360275,0.38612214,0.52837974,0.26793018,0.21367873,0.08050164,0.19062784,0.95549595,0.6276533,3.0,2.0
0.48884436,0.5630021,0.57072455,0.56517917,0.57578063,0.55395913,0.101270474,0.515752,0.39008313,0.46884242,0.508425,0.540443,0.5399225,0.5666858,0.56000805,0.57275206,0.65203965,0.5526196,0.60669166,0.8127634,0.859859,0.58118284,0.6388704,0.41488498,0.5706896,0.73779637,0.37199157,1.0,0.0
0.48633912,0.6906336,0.73102325,0.7042246,0.7392633,0.74124736,0.1015006,0.6767029,0.62615687,0.8097223,0.7666983,0.5739392,0.5049748,0.47101542,0.39277568,0.27895415,0.34277338,0.8647915,0.7417299,0.35501367,0.5050616,0.24344732,0.39996076,0.6348437,0.40643245,0.9042127,0.68290025,1.0,2.0
0.40079275,0.17044647,0.16324563,0.16686489,0.15691066,0.14447954,0.10429405,0.36927038,0.41130653,0.4440277,0.46524268,0.4187663,0.44773388,0.45273548,0.4727631,0.47947586,0.5018711,0.13770723,0.20300576,0.56056994,0.5746922,0.5680571,0.3136452,0.066391535,0.058594298,0.30606654,0.13430482,2.0,1.0
0.4938932,0.8445032,0.829997,0.85149175,0.8374853,0.8408129,0.03711706,0.38136134,0.5083109,0.59675115,0.61299396,0.5569078,0.58403665,0.3648866,0.41758063,0.367971,0.4043962,0.9794449,0.8972558,0.3326445,0.39453346,0.40663058,0.30679563,0.550635,0.33802763,0.9450656,0.53412735,1.0,2.0
0.4099752,0.230957,0.2182705,0.23165624,0.22288449,0.20895813,0.058422692,0.4452169,0.50598484,0.4948479,0.5059046,0.45317423,0.48311454,0.5024446,0.51950246,0.47794038,0.5425855,0.21216764,0.2538769,0.58781856,0.63915867,0.5045818,0.4246411,0.20829307,0.14701743,0.44595718,0.12653662,2.0,1.0
0.3323783,0.23700804,0.225282,0.23444852,0.22451474,0.19864863,0.10405753,0.40103287,0.45786002,0.53979075,0.56841224,0.6124558,0.6276112,0.57245904,0.5891316,0.6031158,0.6318964,0.12573765,0.21406724,0.8310208,0.8328106,0.6740938,0.75466,0.8792349,0.9641117,0.14815582,0.16443698,2.0,1.0
0.40249562,0.21921082,0.20546694,0.20264749,0.19501756,0.17794803,0.10974031,0.32288232,0.37384823,0.51300776,0.5928468,0.5464864,0.5313129,0.4929069,0.47289303,0.47109514,0.49893448,0.19198398,0.22516856,0.52061695,0.5317791,0.561613,0.3554915,0.7877183,0.713538,0.40223205,0.2386724,2.0,1.0
0.5814214,0.14710668,0.1457169,0.15099023,0.15191807,0.1417113,0.13119936,0.50445175,0.62023574,0.6598878,0.6093549,0.57641083,0.5591509,0.56300807,0.5203376,0.4851256,0.49254388,0.1088196,0.1717233,0.65554476,0.7388224,0.4635992,0.55321103,0.5810577,0.29580647,0.3957952,0.3096571,1.0,1.0
0.51759315,0.16892098,0.16355047,0.1745178,0.1698507,0.16137244,0.08457371,0.45956197,0.46960843,0.53628856,0.57925236,0.6301364,0.620416,0.58376974,0.5820859,0.545703,0.53096116,0.15424092,0.14692752,0.47544214,0.45576876,0.60732967,0.40941265,0.726017,0.74651235,0.4753652,0.175837,1.0,1.0
0.579976,0.37008032,0.36845848,0.37473497,0.3764328,0.39887497,0.0677459,0.53965,0.5362956,0.49958318,0.55529237,0.4926121,0.52659243,0.5254757,0.592396,0.6305079,0.74436843,0.3545299,0.34243172,0.48346198,0.40791342,0.7175066,0.46676958,0.27410725,0.3333619,0.74961233,0.4448433,1.0,2.0
0.43088326,0.52395,0.583274,0.53554994,0.58143556,0.5651191,0.29397044,0.6050254,0.7912861,0.8434788,0.6109262,0.5225434,0.45651317,0.4900879,0.45851368,0.40513435,0.41688126,0.69685745,0.47605494,0.09350928,0.09985191,0.44100133,0.32498935,0.49569693,0.24194847,0.7355134,0.8413632,3.0,2.0
0.4565915,0.11405471,0.10725536,0.1151042,0.11325078,0.10871309,0.080246106,0.39694118,0.38043094,0.5619818,0.5609676,0.6308013,0.6280316,0.63418716,0.6217293,0.5747732,0.61530113,0.08294996,0.08072808,0.4674303,0.40532902,0.6867018,0.42877868,0.72344285,0.86093694,0.5260089,0.25181675,3.0,1.0
0.47758862,0.6484288,0.6414999,0.6524122,0.6510265,0.66212577,0.06518578,0.376585,0.50627893,0.59278506,0.5984609,0.4361633,0.5226583,0.5317266,0.5435468,0.5317077,0.6012959,0.63145155,0.6230712,0.6235196,0.5747027,0.7085616,0.503663,0.45499903,0.29145494,0.93126017,0.69219285,1.0,2.0
0.39019167,0.31699377,0.32141045,0.32338798,0.33073512,0.31902465,0.0710028,0.53477687,0.55719405,0.56261474,0.56326544,0.5850172,0.6274323,0.56278026,0.5704389,0.59067124,0.5706926,0.3141967,0.30317104,0.61100984,0.64082444,0.5531405,0.55237246,0.51744336,0.51630384,0.6929301,0.22579171,2.0,1.0
0.4806054,0.51942444,0.50726557,0.5229846,0.5158693,0.49725205,0.08876069,0.4394168,0.52279645,0.49150997,0.5279399,0.5074886,0.44524872,0.41439673,0.3768168,0.41757292,0.44965187,0.58834773,0.5757321,0.4933273,0.6004492,0.3682846,0.33922008,0.30144885,0.26393786,0.7312915,0.42927676,1.0,2.0
0.54675585,0.16424286,0.15008637,0.15109365,0.14203472,0.12386582,0.15223652,0.27740446,0.33619085,0.39210495,0.38026336,0.3489032,0.37380022,0.44038182,0.42747453,0.4809661,0.4872021,0.1774844,0.21622972,0.5239739,0.60775894,0.4226035,0.25839496,0.14613108,0.2286641,0.15148239,0.39017865,1.0,1.0
0.3634714,0.5230347,0.5185449,0.5297068,0.52631307,0.50898296,0.0855006,0.502175,0.5269346,0.56101257,0.5763244,0.5989648,0.6871682,0.6173538,0.61493164,0.60491467,0.6303386,0.50667083,0.48129484,0.6370775,0.6130936,0.66480255,0.6333946,0.626634,0.6485729,0.73639065,0.2464829,2.0,0.0
0.46184185,0.6226991,0.6105071,0.61973214,0.6074175,0.58987355,0.041457452,0.42093328,0.35855865,0.47688088,0.50740784,0.5863795,0.63684994,0.7696095,0.76578367,0.7287894,0.74352366,0.603236,0.5444026,0.58679163,0.4751419,0.8185441,0.5194335,0.61432207,0.8247751,0.78121465,0.81176627,1.0,0.0
0.4000993,0.18717586,0.17828475,0.18325663,0.17555656,0.16008675,0.14416939,0.3761359,0.43092757,0.43281442,0.41158634,0.4402968,0.47542045,0.46803913,0.45663932,0.43695605,0.49580187,0.1684256,0.22217147,0.5334851,0.55857533,0.53867096,0.291183,0.116556264,0.16221592,0.34389344,0.18843041,2.0,1.0
0.31294313,0.9070477,0.89787626,0.9168519,0.8971929,0.9014918,0.048370756,0.428524,0.481665,0.56419885,0.40085024,0.19452079,0.31752393,0.31289494,0.34844816,0.32742298,0.3613313,0.97956324,0.9802259,0.67504126,0.8234328,0.34397736,0.39860007,0.14137962,0.09580958,0.9450631,0.511427,2.0,2.0
0.408927,0.71036303,0.71313894,0.71518683,0.710836,0.7049054,0.083937675,0.40611833,0.4785013,0.49526882,0.60557437,0.9384675,0.88614374,0.76350486,0.7303613,0.7646735,0.7819135,0.6334857,0.5853549,0.8789627,0.7853504,0.8726283,0.72017425,0.7727101,0.84157336,0.9430623,0.6909264,2.0,0.0
0.5161824,0.5936134,0.5917082,0.5962562,0.5809261,0.5663807,0.092698365,0.40761548,0.42941672,0.55504507,0.54631674,0.58272153,0.6276377,0.60658497,0.5643474,0.58041275,0.5770585,0.5730758,0.53310174,0.60212106,0.5472847,0.7136597,0.5243535,0.6848462,0.7568732,0.85855716,0.40262127,1.0,0.0
0.56376934,0.74270314,0.73935574,0.7495216,0.74282944,0.7431866,0.035643626,0.47664535,0.6237545,0.76682186,0.8219942,0.83781105,0.7917154,0.74266464,0.72796744,0.6923921,0.74136543,0.71418756,0.6541715,0.67983484,0.61336964,0.759719,0.76408666,0.96040577,0.9133879,0.90512747,0.3108206,1.0,0.0
0.29020366,0.606529,0.6053247,0.59356743,0.6149574,0.5952232,0.217662,0.48606262,0.44610363,0.44539043,0.4598604,0.4620094,0.41439942,0.35322762,0.36525753,0.38757208,0.36566374,0.7318782,0.68026924,0.25512075,0.28295618,0.4487133,0.19212268,0.2085661,0.18683182,0.7554387,0.5439294,2.0,2.0
0.38975772,0.21946508,0.20892186,0.22384816,0.21794282,0.2080918,0.055073112,0.439068,0.49709126,0.5447825,0.5854746,0.5597772,0.5804611,0.59029686,0.5810845,0.6056109,0.6190691,0.1277761,0.1782287,0.812389,0.82147944,0.6543501,0.7223472,0.8657244,0.81413007,0.6243292,0.18502875,2.0,1.0
0.54552084,0.38645378,0.38979784,0.39521176,0.3904936,0.4097893,0.06847463,0.48356044,0.4809138,0.56113523,0.4379216,0.37417242,0.41857842,0.4015582,0.4613546,0.4723041,0.49523833,0.46922174,0.42433295,0.21866973,0.19771934,0.5316948,0.2349712,0.15030456,0.11195984,0.76598257,0.5072042,1.0,2.0
0.66042614,0.36855492,0.3698811,0.36542735,0.37908196,0.37952936,0.22428446,0.5543,0.65783924,0.7932858,0.79890436,0.67418176,0.64496785,0.59820914,0.63752836,0.515934,0.60714716,0.33443105,0.2908864,0.5919167,0.57452756,0.63835096,0.5765826,0.8505148,0.59294903,0.85710984,0.6840535,1.0,0.0
0.5270254,0.6528018,0.6390611,0.64693105,0.6384941,0.64763427,0.07327527,0.3055412,0.36707628,0.58501875,0.6407086,0.64314127,0.77493364,0.71897465,0.8030617,0.78497607,0.77895343,0.64045817,0.53296417,0.45526183,0.24327047,0.9720166,0.49669254,0.87241846,0.93752503,0.9189904,0.85900694,1.0,0.0
0.46230358,0.70202374,0.6901738,0.7054656,0.69106925,0.6857646,0.025335997,0.3718453,0.44612363,0.48064432,0.4973588,0.47164696,0.49332738,0.48841965,0.3964068,0.43722272,0.44559735,0.7165899,0.6727007,0.7726702,0.88545537,0.44232687,0.5101243,0.22026473,0.17454885,0.94254977,0.502276,1.0,2.0
0.42686015,0.7206346,0.71130985,0.72190905,0.71705127,0.71805227,0.078935675,0.4223343,0.4794392,0.46433127,0.4620421,0.5425537,0.60528374,0.6097554,0.6729196,0.669972,0.7251259,0.68155336,0.74451935,0.8770708,0.87957007,0.68673193,0.7626173,0.3471344,0.55580497,0.919533,0.30878875,3.0,0.0
0.33552694,0.33046886,0.323646,0.3314028,0.32747462,0.3159531,0.048636038,0.42982313,0.5015439,0.56566393,0.5748839,0.56937414,0.52872646,0.5089643,0.5185045,0.5300137,0.53673786,0.29670748,0.3516181,0.68189627,0.7305088,0.5384548,0.55505085,0.59627557,0.45346874,0.6892874,0.25295648,2.0,1.0
0.5623974,0.48082983,0.4718017,0.48539215,0.4756737,0.4742332,0.07566281,0.47339305,0.40190437,0.44085667,0.5328773,0.5166851,0.43669266,0.4269251,0.43423176,0.5268498,0.59354496,0.49048305,0.5324764,0.62437254,0.67657864,0.5140298,0.4484846,0.30392522,0.30390775,0.9580123,0.39389157,1.0,2.0
0.5205427,0.13841148,0.12864546,0.13547754,0.1326099,0.12386218,0.16372353,0.46770898,0.38490844,0.39602858,0.38563874,0.43759754,0.4232531,0.41246438,0.45620617,0.435234,0.4603614,0.12010095,0.19539675,0.61911315,0.7018944,0.45347562,0.39464688,0.0876963,0.18669179,0.36183122,0.3371665,1.0,1.0
0.51230484,0.6018509,0.58815163,0.5983246,0.58489984,0.5701741,0.10552137,0.41592455,0.49112797,0.43764812,0.41535103,0.3734068,0.3872797,0.46232033,0.51019514,0.44250372,0.44933477,0.6194651,0.6260718,0.63470083,0.71237063,0.4680725,0.4246446,0.4918187,0.55502796,0.8618293,0.665172,1.0,2.0
0.4573921,0.16103938,0.14647903,0.15931539,0.15359923,0.1356762,0.09436676,0.43470442,0.49350268,0.58357286,0.59334004,0.6305257,0.6238078,0.6334919,0.63912886,0.6161004,0.67282397,0.07385848,0.12929818,0.65438485,0.6023732,0.7241092,0.7015872,0.90653545,0.92448586,0.22915545,0.10017896,1.0,1.0
0.41675296,0.29146755,0.2893507,0.29577538,0.29818124,0.286574,0.060979623,0.50831985,0.5035396,0.5673771,0.5911036,0.5471475,0.55555505,0.5593243,0.57025623,0.5601465,0.5960614,0.26591697,0.30189362,0.64450234,0.67268825,0.5664677,0.62435436,0.45803323,0.27484316,0.6897594,0.059405155,3.0,1.0
0.24108611,0.51957697,0.50655425,0.52293295,0.512456,0.509719,0.04793288,0.48402968,0.45093712,0.58239067,0.6856767,0.68859714,0.6183172,0.5883477,0.63052213,0.6134985,0.56035393,0.49501136,0.5267472,0.66778064,0.6738978,0.61610043,0.58201724,0.859049,0.84448844,0.9672178,0.3742217,2.0,0.0
0.2732367,0.61974984,0.60847473,0.6104245,0.59508884,0.5912338,0.06819337,0.38260934,0.5638124,0.63463545,0.61255753,0.59706986,0.6849097,0.60705924,0.54109347,0.53572196,0.48803073,0.60024565,0.61562186,0.67477477,0.71419346,0.5540162,0.560667,0.697228,0.6223969,0.9681469,0.43384817,2.0,0.0
0.47374675,0.51978034,0.5071639,0.51672786,0.50104433,0.50600344,0.08069037,0.34328744,0.31061935,0.3342463,0.35829848,0.3402575,0.33112872,0.33613142,0.38757452,0.35060468,0.415759,0.61707914,0.59142077,0.4002088,0.5004439,0.3532419,0.14465266,0.031793945,0.051164247,0.7977121,0.34856653,1.0,2.0
0.32334778,0.5413404,0.55278933,0.5468224,0.55270255,0.54435843,0.14703636,0.5662327,0.5798599,0.64923996,0.6868798,0.73690844,0.7123079,0.6283778,0.6183757,0.6580622,0.6563117,0.5121227,0.4658677,0.78206575,0.82310414,0.5835256,0.6928438,0.89695656,0.904439,0.77962846,0.5012177,2.0,0.0
0.32422403,0.22709246,0.22182707,0.22084904,0.21498801,0.1900109,0.16487415,0.44390783,0.47968772,0.5321619,0.55583316,0.566641,0.5643806,0.5706859,0.63271445,0.6011534,0.679683,0.14981237,0.19456041,0.6710282,0.6495875,0.6702249,0.5782961,0.48538372,0.6077582,0.19359238,0.36782852,2.0,1.0
0.3947638,0.5493746,0.54120517,0.5539583,0.5390493,0.5538258,0.07143428,0.43078977,0.39212054,0.2812148,0.22788957,0.3085458,0.3625476,0.3252246,0.3603345,0.34400532,0.39050892,0.64495474,0.62212837,0.3549374,0.4088667,0.42875868,0.23714615,0.07552091,0.18389936,0.82266945,0.580903,2.0,2.0
0.2794394,0.12356352,0.12712125,0.12834167,0.13637982,0.1273472,0.16544946,0.4964053,0.62847805,0.6806294,0.6244949,0.61503345,0.6718943,0.64176595,0.6633724,0.7089492,0.703812,0.0077669723,0.097528085,0.7242243,0.6511341,0.7859944,0.6985141,0.7411095,0.6115609,0.36012056,0.31202725,2.0,1.0
0.43657884,0.21738024,0.21313894,0.22146957,0.21498801,0.1962768,0.09491011,0.478914,0.43317965,0.454316,0.4857862,0.47645324,0.46358827,0.4523593,0.4597779,0.44300357,0.4593294,0.20120479,0.26139227,0.6262656,0.7101591,0.45350635,0.391025,0.16207589,0.17049223,0.37910682,0.19061686,3.0,1.0
0.78267205,0.53452665,0.5244386,0.51062614,0.49574605,0.50755763,0.059445467,0.18312679,0.16758683,0.0993655,0.12983342,0.07196118,0.0,0.0,0.0,0.026811685,0.05740372,0.7308008,0.66959375,0.042453356,0.17730677,0.17768009,0.09527261,0.010624925,0.014360512,0.85836077,0.9369861,1.0,2.0
0.4299312,0.2002441,0.19322222,0.20187186,0.19853275,0.17970341,0.11552537,0.45993328,0.5675055,0.6093969,0.6413909,0.6624754,0.6378902,0.6197259,0.6239739,0.6102931,0.61868155,0.1056343,0.1752711,0.75508285,0.7499661,0.66431445,0.8524731,0.83029187,0.81092286,0.37010407,0.08902629,3.0,1.0
0.5607975,0.658802,0.6622295,0.6715445,0.66467977,0.644431,0.11859688,0.49501243,0.54375505,0.6548897,0.5984621,0.6619113,0.61189467,0.5657491,0.57446957,0.53393275,0.5746886,0.63293564,0.62550485,0.6842011,0.6438002,0.71079016,0.57345355,0.8019037,0.66146666,0.75918543,0.69209397,1.0,0.0
0.48679048,0.31862098,0.30962297,0.3241119,0.3131591,0.3006436,0.055015583,0.4281992,0.49411768,0.5521777,0.59345704,0.61155295,0.63290524,0.65352315,0.6366744,0.5897517,0.60042137,0.2867802,0.2776668,0.6006577,0.57855314,0.6501018,0.5738874,0.8927368,0.9469741,0.6922482,0.12797496,1.0,1.0
0.35270822,0.06859557,0.0543136,0.04302187,0.042488135,0.039122008,0.31039554,0.25520584,0.25572646,0.30914366,0.31355453,0.3153556,0.3874397,0.41878462,0.43585867,0.4300306,0.4053284,0.06521147,0.121264435,0.43164688,0.45007527,0.52054214,0.16585895,0.12963322,0.3048465,0.26688707,0.30478457,2.0,1.0
0.51806676,0.1380047,0.1250381,0.12875536,0.12512098,0.10978054,0.16179945,0.41122606,0.49269286,0.5616016,0.566534,0.5933465,0.59210116,0.58993065,0.61406523,0.58424455,0.58691764,0.06897609,0.10675302,0.5653516,0.5248955,0.6747487,0.5270492,0.78445804,0.8031082,0.21054225,0.114693254,1.0,1.0
0.72164524,0.15656464,0.14678386,0.14721547,0.14116867,0.13639484,0.12956932,0.31633765,0.42922765,0.45855033,0.4634772,0.51809114,0.559822,0.5554719,0.53718907,0.49748245,0.53530526,0.087181635,0.17383273,0.6615442,0.6592434,0.63043493,0.48367354,0.47652975,0.63847566,0.603202,0.23647234,1.0,1.0
0.45411003,0.95494765,0.9493954,0.94642943,0.93091846,0.93233293,0.08348382,0.24211493,0.27948418,0.37654927,0.4272789,0.44147685,0.5516448,0.62153435,0.63461494,0.62103355,0.61568475,0.9832689,0.9090422,0.78242373,0.8054768,0.61831355,0.5120387,0.49377576,0.71090835,0.9766172,0.58207357,3.0,0.0
0.40223634,0.847961,0.84615386,0.8557319,0.85358393,0.8208888,0.14838514,0.5537924,0.6565859,0.7569591,0.6960461,0.67408544,0.7507244,0.7405376,0.7856107,0.75440794,0.78705627,0.78063434,0.782372,0.94988096,0.93007815,0.7518797,0.8756577,0.8769866,0.7898043,0.7766671,0.39689517,2.0,0.0
